,session,participant,time,ECG,EDA,Respiration
0,3,4,82760.49997859549,0,0,339
1,3,4,82760.50999311243,0,0,333
2,3,4,82760.52000762937,0,0,328
3,3,4,82760.5300221463,0,0,323
4,3,4,82760.54003666324,0,0,319
5,3,4,82760.55005118018,0,0,314
6,3,4,82760.56006569712,0,0,310
7,3,4,82760.57008021406,0,0,305
8,3,4,82760.580094731,0,0,300
9,3,4,82760.59010924793,0,0,295
10,3,4,82760.60012376487,0,0,289
11,3,4,82760.61013828182,0,0,284
12,3,4,82760.62015279876,0,0,282
13,3,4,82760.6301673157,0,0,279
14,3,4,82760.64018183264,0,0,278
15,3,4,82760.65019634957,0,0,276
16,3,4,82760.66021086651,0,0,275
17,3,4,82760.67022538345,0,0,275
18,3,4,82760.6802399004,0,0,274
19,3,4,82760.69025441734,0,0,273
20,3,4,82760.70026893428,0,0,273
21,3,4,82760.7102834512,0,0,273
22,3,4,82760.72029796815,0,0,273
23,3,4,82760.73031248509,0,0,274
24,3,4,82760.74032700203,0,0,275
25,3,4,82760.75034151897,0,0,279
26,3,4,82760.76035603591,0,0,282
27,3,4,82760.77037055284,0,0,285
28,3,4,82760.78038506978,0,0,290
29,3,4,82760.79039958672,0,0,295
30,3,4,82760.80041410367,0,0,301
31,3,4,82760.8104286206,0,0,306
32,3,4,82760.82044313753,0,0,311
33,3,4,82760.83045765448,0,0,315
34,3,4,82760.84047217142,0,0,317
35,3,4,82760.85048668836,0,0,317
36,3,4,82760.8605012053,0,0,319
37,3,4,82760.87051572224,0,0,319
38,3,4,82760.88053023917,0,0,320
39,3,4,82760.89054475611,0,0,320
40,3,4,82760.90055927305,0,0,320
41,3,4,82760.91057379,0,0,320
42,3,4,82760.92058830694,0,0,319
43,3,4,82760.93060282388,0,0,318
44,3,4,82760.9406173408,0,0,317
45,3,4,82760.95063185775,0,0,316
46,3,4,82760.96064637469,0,0,316
47,3,4,82760.97066089163,0,0,314
48,3,4,82760.98067540857,0,0,311
49,3,4,82760.99068992551,0,0,309
50,3,4,82761.00070444244,0,0,305
51,3,4,82761.01071895938,0,0,300
52,3,4,82761.02073347633,0,0,293
53,3,4,82761.03074799327,0,0,285
54,3,4,82761.04076251021,0,0,279
55,3,4,82761.05077702715,0,0,270
56,3,4,82761.06079154408,0,0,262
57,3,4,82761.07080606102,0,0,254
58,3,4,82761.08082057796,0,0,247
59,3,4,82761.0908350949,0,0,239
60,3,4,82761.10084961184,0,0,232
61,3,4,82761.11086412877,0,0,226
62,3,4,82761.12087864571,0,0,220
63,3,4,82761.13089316266,0,0,215
64,3,4,82761.1409076796,0,0,210
65,3,4,82761.15092219654,0,0,205
66,3,4,82761.16093671348,0,0,200
67,3,4,82761.17095123041,0,0,197
68,3,4,82761.18096574735,0,0,194
69,3,4,82761.19098026429,0,0,192
70,3,4,82761.20099478123,0,0,190
71,3,4,82761.21100929817,0,0,189
72,3,4,82761.22102381512,0,0,187
73,3,4,82761.23103833204,0,0,185
74,3,4,82761.24105284899,0,0,184
75,3,4,82761.25106736593,0,0,183
76,3,4,82761.26108188287,0,0,182
77,3,4,82761.27109639981,0,0,180
78,3,4,82761.28111091675,0,0,179
79,3,4,82761.29112543368,0,0,178
80,3,4,82761.30113995062,0,0,178
81,3,4,82761.31115446756,0,0,178
82,3,4,82761.3211689845,0,0,177
83,3,4,82761.33118350145,0,0,176
84,3,4,82761.34119801839,0,0,175
85,3,4,82761.35121253532,0,0,174
86,3,4,82761.36122705226,0,0,172
87,3,4,82761.3712415692,0,0,171
88,3,4,82761.38125608614,0,0,168
89,3,4,82761.39127060308,0,0,166
90,3,4,82761.40128512001,0,0,164
91,3,4,82761.41129963695,0,0,160
92,3,4,82761.4213141539,0,0,158
93,3,4,82761.43132867083,0,0,155
94,3,4,82761.44134318778,0,0,152
95,3,4,82761.45135770472,0,0,149
96,3,4,82761.46137222165,0,0,146
97,3,4,82761.47138673859,0,0,143
98,3,4,82761.48140125553,0,0,140
99,3,4,82761.49141577247,0,0,137
100,3,4,82761.50143028941,0,0,134
101,3,4,82761.51144480635,0,0,131
102,3,4,82761.52145932328,0,0,129
103,3,4,82761.53147384022,0,0,126
104,3,4,82761.54148835716,0,0,124
105,3,4,82761.5515028741,0,0,122
106,3,4,82761.56151739105,0,0,121
107,3,4,82761.57153190799,0,0,120
108,3,4,82761.58154642492,0,0,120
109,3,4,82761.59156094186,0,0,120
110,3,4,82761.6015754588,0,0,120
111,3,4,82761.61158997574,0,0,121
112,3,4,82761.62160449268,0,0,123
113,3,4,82761.63161900963,0,0,124
114,3,4,82761.64163352655,0,0,126
115,3,4,82761.6516480435,0,0,129
116,3,4,82761.66166256044,0,0,131
117,3,4,82761.67167707738,0,0,132
118,3,4,82761.68169159432,0,0,134
119,3,4,82761.69170611125,0,0,134
120,3,4,82761.70172062819,0,0,135
121,3,4,82761.71173514513,0,0,135
122,3,4,82761.72174966207,0,0,134
123,3,4,82761.73176417901,0,0,133
124,3,4,82761.74177869596,0,0,131
125,3,4,82761.75179321288,0,0,130
126,3,4,82761.76180772982,0,0,130
127,3,4,82761.77182224677,0,0,130
128,3,4,82761.78183676371,0,0,132
129,3,4,82761.79185128065,0,0,134
130,3,4,82761.80186579759,0,0,135
131,3,4,82761.81188031452,0,0,138
132,3,4,82761.82189483146,0,0,141
133,3,4,82761.8319093484,0,0,145
134,3,4,82761.84192386534,0,0,148
135,3,4,82761.85193838229,0,0,152
136,3,4,82761.86195289923,0,0,156
137,3,4,82761.87196741615,0,0,161
138,3,4,82761.8819819331,0,0,166
139,3,4,82761.89199645004,0,0,170
140,3,4,82761.90201096698,0,0,175
141,3,4,82761.91202548392,0,0,178
142,3,4,82761.92204000086,0,0,182
143,3,4,82761.93205451779,0,0,184
144,3,4,82761.94206903473,0,0,184
145,3,4,82761.95208355167,0,0,186
146,3,4,82761.96209806862,0,0,186
147,3,4,82761.97211258556,0,0,187
148,3,4,82761.98212710248,0,0,186
149,3,4,82761.99214161943,0,0,185
150,3,4,82762.00215613637,0,0,183
151,3,4,82762.01217065331,0,0,180
152,3,4,82762.02218517025,0,0,177
153,3,4,82762.0321996872,0,0,175
154,3,4,82762.04221420412,0,0,172
155,3,4,82762.05222872106,0,0,170
156,3,4,82762.062243238,0,0,167
157,3,4,82762.07225775495,0,0,166
158,3,4,82762.08227227189,0,0,165
159,3,4,82762.09228678883,0,0,164
160,3,4,82762.10230130576,0,0,164
161,3,4,82762.1123158227,0,0,167
162,3,4,82762.12233033964,0,0,169
163,3,4,82762.13234485658,0,0,172
164,3,4,82762.14235937352,0,0,177
165,3,4,82762.15237389047,0,0,179
166,3,4,82762.16238840739,0,0,182
167,3,4,82762.17240292433,0,0,186
168,3,4,82762.18241744128,0,0,190
169,3,4,82762.19243195822,0,0,193
170,3,4,82762.20244647516,0,0,195
171,3,4,82762.2124609921,0,0,199
172,3,4,82762.22247550903,0,0,202
173,3,4,82762.23249002597,0,0,206
174,3,4,82762.24250454291,0,0,208
175,3,4,82762.25251905985,0,0,211
176,3,4,82762.2625335768,0,0,215
177,3,4,82762.27254809372,0,0,217
178,3,4,82762.28256261066,0,0,220
179,3,4,82762.2925771276,0,0,223
180,3,4,82762.30259164455,0,0,225
181,3,4,82762.31260616149,0,0,228
182,3,4,82762.32262067843,0,0,231
183,3,4,82762.33263519536,0,0,236
184,3,4,82762.3426497123,0,0,242
185,3,4,82762.35266422924,0,0,248
186,3,4,82762.36267874618,0,0,254
187,3,4,82762.37269326313,0,0,261
188,3,4,82762.38270778007,0,0,268
189,3,4,82762.392722297,0,0,273
190,3,4,82762.40273681394,0,0,278
191,3,4,82762.41275133088,0,0,282
192,3,4,82762.42276584782,0,0,286
193,3,4,82762.43278036476,0,0,290
194,3,4,82762.4427948817,0,0,294
195,3,4,82762.45280939863,0,0,298
196,3,4,82762.46282391557,0,0,302
197,3,4,82762.47283843251,0,0,305
198,3,4,82762.48285294946,0,0,309
199,3,4,82762.4928674664,0,0,313
200,3,4,82762.50288198334,0,0,316
201,3,4,82762.51289650027,0,0,319
202,3,4,82762.52291101721,0,0,321
203,3,4,82762.53292553415,0,0,324
204,3,4,82762.54294005109,0,0,326
205,3,4,82762.55295456803,0,0,327
206,3,4,82762.56296908496,0,0,332
207,3,4,82762.5729836019,0,0,336
208,3,4,82762.58299811884,0,0,339
209,3,4,82762.59301263579,0,0,343
210,3,4,82762.60302715273,0,0,346
211,3,4,82762.61304166967,0,0,349
212,3,4,82762.6230561866,0,0,352
213,3,4,82762.63307070354,0,0,355
214,3,4,82762.64308522048,0,0,358
215,3,4,82762.65309973742,0,0,360
216,3,4,82762.66311425436,0,0,363
217,3,4,82762.6731287713,0,0,367
218,3,4,82762.68314328823,0,0,369
219,3,4,82762.69315780517,0,0,374
220,3,4,82762.70317232212,0,0,379
221,3,4,82762.71318683906,0,0,382
222,3,4,82762.723201356,0,0,385
223,3,4,82762.73321587294,0,0,391
224,3,4,82762.74323038987,0,0,394
225,3,4,82762.75324490681,0,0,400
226,3,4,82762.76325942375,0,0,405
227,3,4,82762.7732739407,0,0,409
228,3,4,82762.78328845763,0,0,412
229,3,4,82762.79330297458,0,0,414
230,3,4,82762.8033174915,0,0,416
231,3,4,82762.81333200845,0,0,418
232,3,4,82762.82334652539,0,0,421
233,3,4,82762.83336104233,0,0,423
234,3,4,82762.84337555927,0,0,427
235,3,4,82762.8533900762,0,0,430
236,3,4,82762.86340459314,0,0,434
237,3,4,82762.87341911008,0,0,437
238,3,4,82762.88343362702,0,0,439
239,3,4,82762.89344814396,0,0,443
240,3,4,82762.9034626609,0,0,447
241,3,4,82762.91347717783,0,0,449
242,3,4,82762.92349169478,0,0,454
243,3,4,82762.93350621172,0,0,457
244,3,4,82762.94352072866,0,0,463
245,3,4,82762.9535352456,0,0,469
246,3,4,82762.96354976254,0,0,475
247,3,4,82762.97356427947,0,0,484
248,3,4,82762.98357879641,0,0,492
249,3,4,82762.99359331335,0,0,501
250,3,4,82763.0036078303,0,0,510
251,3,4,82763.01362234724,0,0,519
252,3,4,82763.02363686418,0,0,528
253,3,4,82763.0336513811,0,0,539
254,3,4,82763.04366589805,0,0,549
255,3,4,82763.05368041499,0,0,559
256,3,4,82763.06369493193,0,0,572
257,3,4,82763.07370944887,0,0,583
258,3,4,82763.08372396581,0,0,594
259,3,4,82763.09373848274,0,0,603
260,3,4,82763.10375299968,0,0,609
261,3,4,82763.11376751662,0,0,616
262,3,4,82763.12378203357,0,0,620
263,3,4,82763.13379655051,0,0,626
264,3,4,82763.14381106744,0,0,630
265,3,4,82763.15382558438,0,0,635
266,3,4,82763.16384010132,0,0,638
267,3,4,82763.17385461826,0,0,641
268,3,4,82763.1838691352,0,0,645
269,3,4,82763.19388365214,0,0,648
270,3,4,82763.20389816907,0,0,652
271,3,4,82763.21391268601,0,0,656
272,3,4,82763.22392720295,0,0,659
273,3,4,82763.2339417199,0,0,663
274,3,4,82763.24395623684,0,0,665
275,3,4,82763.25397075378,0,0,667
276,3,4,82763.2639852707,0,0,668
277,3,4,82763.27399978765,0,0,668
278,3,4,82763.28401430459,0,0,670
279,3,4,82763.29402882153,0,0,670
280,3,4,82763.30404333847,0,0,669
281,3,4,82763.31405785542,0,0,670
282,3,4,82763.32407237234,0,0,668
283,3,4,82763.33408688928,0,0,667
284,3,4,82763.34410140623,0,0,664
285,3,4,82763.35411592317,0,0,662
286,3,4,82763.36413044011,0,0,658
287,3,4,82763.37414495705,0,0,656
288,3,4,82763.38415947398,0,0,654
289,3,4,82763.39417399092,0,0,652
290,3,4,82763.40418850786,0,0,652
291,3,4,82763.4142030248,0,0,651
292,3,4,82763.42421754175,0,0,651
293,3,4,82763.43423205867,0,0,651
294,3,4,82763.44424657561,0,0,652
295,3,4,82763.45426109256,0,0,652
296,3,4,82763.4642756095,0,0,653
297,3,4,82763.47429012644,0,0,654
298,3,4,82763.48430464338,0,0,655
299,3,4,82763.49431916031,0,0,656
300,3,4,82763.50433367725,0,0,656
301,3,4,82763.51434819419,0,0,657
302,3,4,82763.52436271113,0,0,656
303,3,4,82763.53437722808,0,0,656
304,3,4,82763.54439174502,0,0,655
305,3,4,82763.55440626194,0,0,654
306,3,4,82763.56442077889,0,0,653
307,3,4,82763.57443529583,0,0,651
308,3,4,82763.58444981277,0,0,651
309,3,4,82763.59446432971,0,0,649
310,3,4,82763.60447884665,0,0,646
311,3,4,82763.61449336358,0,0,644
312,3,4,82763.62450788052,0,0,642
313,3,4,82763.63452239746,0,0,640
314,3,4,82763.6445369144,0,0,639
315,3,4,82763.65455143135,0,0,639
316,3,4,82763.66456594829,0,0,639
317,3,4,82763.67458046522,0,0,640
318,3,4,82763.68459498216,0,0,642
319,3,4,82763.6946094991,0,0,643
320,3,4,82763.70462401604,0,0,644
321,3,4,82763.71463853298,0,0,646
322,3,4,82763.72465304991,0,0,648
323,3,4,82763.73466756685,0,0,651
324,3,4,82763.7446820838,0,0,654
325,3,4,82763.75469660074,0,0,657
326,3,4,82763.76471111768,0,0,662
327,3,4,82763.77472563462,0,0,665
328,3,4,82763.78474015155,0,0,667
329,3,4,82763.79475466849,0,0,670
330,3,4,82763.80476918543,0,0,672
331,3,4,82763.81478370237,0,0,675
332,3,4,82763.82479821931,0,0,677
333,3,4,82763.83481273626,0,0,679
334,3,4,82763.84482725318,0,0,683
335,3,4,82763.85484177012,0,0,686
336,3,4,82763.86485628707,0,0,687
337,3,4,82763.87487080401,0,0,691
338,3,4,82763.88488532095,0,0,693
339,3,4,82763.89489983789,0,0,695
340,3,4,82763.90491435482,0,0,696
341,3,4,82763.91492887176,0,0,697
342,3,4,82763.9249433887,0,0,697
343,3,4,82763.93495790564,0,0,700
344,3,4,82763.94497242259,0,0,700
345,3,4,82763.95498693953,0,0,702
346,3,4,82763.96500145645,0,0,704
347,3,4,82763.9750159734,0,0,706
348,3,4,82763.98503049034,0,0,709
349,3,4,82763.99504500728,0,0,712
350,3,4,82764.00505952422,0,0,717
351,3,4,82764.01507404115,0,0,721
352,3,4,82764.02508855809,0,0,725
353,3,4,82764.03510307503,0,0,728
354,3,4,82764.04511759197,0,0,730
355,3,4,82764.05513210892,0,0,733
356,3,4,82764.06514662586,0,0,735
357,3,4,82764.07516114278,0,0,738
358,3,4,82764.08517565973,0,0,742
359,3,4,82764.09519017667,0,0,745
360,3,4,82764.10520469361,0,0,749
361,3,4,82764.11521921055,0,0,753
362,3,4,82764.1252337275,0,0,755
363,3,4,82764.13524824442,0,0,756
364,3,4,82764.14526276136,0,0,755
365,3,4,82764.1552772783,0,0,755
366,3,4,82764.16529179525,0,0,754
367,3,4,82764.17530631219,0,0,752
368,3,4,82764.18532082913,0,0,752
369,3,4,82764.19533534606,0,0,751
370,3,4,82764.205349863,0,0,750
371,3,4,82764.21536437994,0,0,748
372,3,4,82764.22537889688,0,0,745
373,3,4,82764.23539341382,0,0,742
374,3,4,82764.24540793076,0,0,738
375,3,4,82764.25542244769,0,0,734
376,3,4,82764.26543696463,0,0,731
377,3,4,82764.27545148158,0,0,727
378,3,4,82764.28546599852,0,0,723
379,3,4,82764.29548051546,0,0,718
380,3,4,82764.30549503239,0,0,713
381,3,4,82764.31550954933,0,0,707
382,3,4,82764.32552406627,0,0,700
383,3,4,82764.33553858321,0,0,695
384,3,4,82764.34555310015,0,0,689
385,3,4,82764.3555676171,0,0,684
386,3,4,82764.36558213402,0,0,679
387,3,4,82764.37559665096,0,0,673
388,3,4,82764.3856111679,0,0,668
389,3,4,82764.39562568485,0,0,662
390,3,4,82764.40564020179,0,0,654
391,3,4,82764.41565471873,0,0,646
392,3,4,82764.42566923566,0,0,637
393,3,4,82764.4356837526,0,0,627
394,3,4,82764.44569826954,0,0,615
395,3,4,82764.45571278648,0,0,605
396,3,4,82764.46572730342,0,0,596
397,3,4,82764.47574182037,0,0,586
398,3,4,82764.4857563373,0,0,578
399,3,4,82764.49577085424,0,0,570
400,3,4,82764.50578537118,0,0,563
401,3,4,82764.51579988812,0,0,557
402,3,4,82764.52581440506,0,0,552
403,3,4,82764.535828922,0,0,548
404,3,4,82764.54584343893,0,0,545
405,3,4,82764.55585795587,0,0,543
406,3,4,82764.56587247281,0,0,540
407,3,4,82764.57588698975,0,0,539
408,3,4,82764.5859015067,0,0,537
409,3,4,82764.59591602362,0,0,537
410,3,4,82764.60593054057,0,0,537
411,3,4,82764.6159450575,0,0,536
412,3,4,82764.62595957445,0,0,539
413,3,4,82764.63597409139,0,0,540
414,3,4,82764.64598860833,0,0,543
415,3,4,82764.65600312526,0,0,545
416,3,4,82764.6660176422,0,0,547
417,3,4,82764.67603215914,0,0,548
418,3,4,82764.68604667608,0,0,549
419,3,4,82764.69606119303,0,0,549
420,3,4,82764.70607570997,0,0,550
421,3,4,82764.7160902269,0,0,549
422,3,4,82764.72610474384,0,0,549
423,3,4,82764.73611926078,0,0,549
424,3,4,82764.74613377772,0,0,549
425,3,4,82764.75614829466,0,0,549
426,3,4,82764.7661628116,0,0,549
427,3,4,82764.77617732853,0,0,549
428,3,4,82764.78619184547,0,0,550
429,3,4,82764.79620636241,0,0,550
430,3,4,82764.80622087936,0,0,550
431,3,4,82764.8162353963,0,0,551
432,3,4,82764.82624991324,0,0,551
433,3,4,82764.83626443017,0,0,552
434,3,4,82764.84627894711,0,0,554
435,3,4,82764.85629346405,0,0,556
436,3,4,82764.86630798099,0,0,558
437,3,4,82764.87632249793,0,0,560
438,3,4,82764.88633701486,0,0,561
439,3,4,82764.8963515318,0,0,562
440,3,4,82764.90636604874,0,0,564
441,3,4,82764.91638056569,0,0,566
442,3,4,82764.92639508263,0,0,567
443,3,4,82764.93640959957,0,0,571
444,3,4,82764.9464241165,0,0,576
445,3,4,82764.95643863344,0,0,579
446,3,4,82764.96645315038,0,0,582
447,3,4,82764.97646766732,0,0,583
448,3,4,82764.98648218426,0,0,586
449,3,4,82764.9964967012,0,0,588
450,3,4,82765.00651121813,0,0,590
451,3,4,82765.01652573507,0,0,591
452,3,4,82765.02654025202,0,0,593
453,3,4,82765.03655476896,0,0,592
454,3,4,82765.0465692859,0,0,593
455,3,4,82765.05658380284,0,0,593
456,3,4,82765.06659831977,0,0,593
457,3,4,82765.07661283671,0,0,593
458,3,4,82765.08662735365,0,0,593
459,3,4,82765.0966418706,0,0,594
460,3,4,82765.10665638754,0,0,593
461,3,4,82765.11667090448,0,0,594
462,3,4,82765.1266854214,0,0,593
463,3,4,82765.13669993835,0,0,593
464,3,4,82765.14671445529,0,0,591
465,3,4,82765.15672897223,0,0,592
466,3,4,82765.16674348917,0,0,592
467,3,4,82765.1767580061,0,0,592
468,3,4,82765.18677252304,0,0,592
469,3,4,82765.19678703998,0,0,591
470,3,4,82765.20680155692,0,0,589
471,3,4,82765.21681607387,0,0,589
472,3,4,82765.22683059081,0,0,587
473,3,4,82765.23684510773,0,0,585
474,3,4,82765.24685962468,0,0,584
475,3,4,82765.25687414162,0,0,584
476,3,4,82765.26688865856,0,0,582
477,3,4,82765.2769031755,0,0,583
478,3,4,82765.28691769244,0,0,583
479,3,4,82765.29693220937,0,0,583
480,3,4,82765.30694672631,0,0,582
481,3,4,82765.31696124325,0,0,582
482,3,4,82765.3269757602,0,0,583
483,3,4,82765.33699027714,0,0,585
484,3,4,82765.34700479408,0,0,585
485,3,4,82765.357019311,0,0,585
486,3,4,82765.36703382795,0,0,582
487,3,4,82765.37704834489,0,0,579
488,3,4,82765.38706286183,0,0,576
489,3,4,82765.39707737877,0,0,570
490,3,4,82765.40709189571,0,0,564
491,3,4,82765.41710641264,0,0,558
492,3,4,82765.42712092958,0,0,551
493,3,4,82765.43713544653,0,0,544
494,3,4,82765.44714996347,0,0,538
495,3,4,82765.45716448041,0,0,531
496,3,4,82765.46717899734,0,0,526
497,3,4,82765.47719351428,0,0,520
498,3,4,82765.48720803122,0,0,515
499,3,4,82765.49722254816,0,0,512
500,3,4,82765.5072370651,0,0,509
501,3,4,82765.51725158204,0,0,506
502,3,4,82765.52726609897,0,0,503
503,3,4,82765.53728061591,0,0,500
504,3,4,82765.54729513286,0,0,497
505,3,4,82765.5573096498,0,0,495
506,3,4,82765.56732416674,0,0,492
507,3,4,82765.57733868368,0,0,489
508,3,4,82765.58735320061,0,0,487
509,3,4,82765.59736771755,0,0,484
510,3,4,82765.60738223449,0,0,481
511,3,4,82765.61739675143,0,0,478
512,3,4,82765.62741126837,0,0,476
513,3,4,82765.63742578532,0,0,472
514,3,4,82765.64744030224,0,0,468
515,3,4,82765.65745481919,0,0,465
516,3,4,82765.66746933613,0,0,461
517,3,4,82765.67748385307,0,0,458
518,3,4,82765.68749837001,0,0,455
519,3,4,82765.69751288695,0,0,454
520,3,4,82765.70752740388,0,0,452
521,3,4,82765.71754192082,0,0,451
522,3,4,82765.72755643776,0,0,448
523,3,4,82765.7375709547,0,0,446
524,3,4,82765.74758547165,0,0,444
525,3,4,82765.75759998857,0,0,441
526,3,4,82765.76761450552,0,0,439
527,3,4,82765.77762902246,0,0,437
528,3,4,82765.7876435394,0,0,435
529,3,4,82765.79765805634,0,0,432
530,3,4,82765.80767257328,0,0,430
531,3,4,82765.81768709021,0,0,426
532,3,4,82765.82770160715,0,0,425
533,3,4,82765.8377161241,0,0,422
534,3,4,82765.84773064104,0,0,419
535,3,4,82765.85774515798,0,0,417
536,3,4,82765.86775967492,0,0,414
537,3,4,82765.87777419185,0,0,410
538,3,4,82765.88778870879,0,0,406
539,3,4,82765.89780322573,0,0,401
540,3,4,82765.90781774267,0,0,397
541,3,4,82765.91783225961,0,0,393
542,3,4,82765.92784677655,0,0,387
543,3,4,82765.93786129348,0,0,384
544,3,4,82765.94787581042,0,0,379
545,3,4,82765.95789032737,0,0,374
546,3,4,82765.9679048443,0,0,369
547,3,4,82765.97791936125,0,0,364
548,3,4,82765.98793387818,0,0,360
549,3,4,82765.99794839512,0,0,359
550,3,4,82766.00796291206,0,0,357
551,3,4,82766.017977429,0,0,355
552,3,4,82766.02799194594,0,0,353
553,3,4,82766.03800646288,0,0,351
554,3,4,82766.04802097981,0,0,348
555,3,4,82766.05803549675,0,0,345
556,3,4,82766.0680500137,0,0,345
557,3,4,82766.07806453064,0,0,343
558,3,4,82766.08807904758,0,0,343
559,3,4,82766.09809356452,0,0,343
560,3,4,82766.10810808145,0,0,341
561,3,4,82766.11812259839,0,0,341
562,3,4,82766.12813711533,0,0,341
563,3,4,82766.13815163227,0,0,340
564,3,4,82766.14816614921,0,0,340
565,3,4,82766.15818066616,0,0,341
566,3,4,82766.16819518308,0,0,342
567,3,4,82766.17820970003,0,0,342
568,3,4,82766.18822421697,0,0,343
569,3,4,82766.19823873391,0,0,344
570,3,4,82766.20825325085,0,0,345
571,3,4,82766.21826776779,0,0,346
572,3,4,82766.22828228472,0,0,347
573,3,4,82766.23829680166,0,0,349
574,3,4,82766.2483113186,0,0,350
575,3,4,82766.25832583554,0,0,351
576,3,4,82766.26834035249,0,0,352
577,3,4,82766.27835486941,0,0,352
578,3,4,82766.28836938636,0,0,352
579,3,4,82766.2983839033,0,0,350
580,3,4,82766.30839842024,0,0,348
581,3,4,82766.31841293718,0,0,347
582,3,4,82766.32842745412,0,0,346
583,3,4,82766.33844197105,0,0,345
584,3,4,82766.34845648799,0,0,342
585,3,4,82766.35847100493,0,0,339
586,3,4,82766.36848552187,0,0,335
587,3,4,82766.37850003882,0,0,333
588,3,4,82766.38851455576,0,0,332
589,3,4,82766.39852907269,0,0,332
590,3,4,82766.40854358963,0,0,332
591,3,4,82766.41855810657,0,0,335
592,3,4,82766.42857262351,0,0,337
593,3,4,82766.43858714045,0,0,339
594,3,4,82766.4486016574,0,0,339
595,3,4,82766.45861617432,0,0,342
596,3,4,82766.46863069126,0,0,343
597,3,4,82766.4786452082,0,0,343
598,3,4,82766.48865972515,0,0,343
599,3,4,82766.49867424209,0,0,342
600,3,4,82766.50868875903,0,0,341
601,3,4,82766.51870327596,0,0,340
602,3,4,82766.5287177929,0,0,340
603,3,4,82766.53873230984,0,0,341
604,3,4,82766.54874682678,0,0,341
605,3,4,82766.55876134372,0,0,341
606,3,4,82766.56877586065,0,0,342
607,3,4,82766.57879037759,0,0,342
608,3,4,82766.58880489453,0,0,342
609,3,4,82766.59881941148,0,0,342
610,3,4,82766.60883392842,0,0,342
611,3,4,82766.61884844536,0,0,342
612,3,4,82766.62886296229,0,0,341
613,3,4,82766.63887747923,0,0,340
614,3,4,82766.64889199617,0,0,339
615,3,4,82766.65890651311,0,0,337
616,3,4,82766.66892103005,0,0,337
617,3,4,82766.678935547,0,0,336
618,3,4,82766.68895006392,0,0,336
619,3,4,82766.69896458086,0,0,337
620,3,4,82766.7089790978,0,0,339
621,3,4,82766.71899361475,0,0,340
622,3,4,82766.72900813169,0,0,342
623,3,4,82766.73902264863,0,0,344
624,3,4,82766.74903716556,0,0,345
625,3,4,82766.7590516825,0,0,347
626,3,4,82766.76906619944,0,0,350
627,3,4,82766.77908071638,0,0,354
628,3,4,82766.78909523333,0,0,357
629,3,4,82766.79910975027,0,0,361
630,3,4,82766.8091242672,0,0,363
631,3,4,82766.81913878414,0,0,365
632,3,4,82766.82915330108,0,0,367
633,3,4,82766.83916781802,0,0,369
634,3,4,82766.84918233496,0,0,371
635,3,4,82766.85919685189,0,0,374
636,3,4,82766.86921136883,0,0,377
637,3,4,82766.87922588577,0,0,381
638,3,4,82766.88924040271,0,0,384
639,3,4,82766.89925491966,0,0,389
640,3,4,82766.9092694366,0,0,392
641,3,4,82766.91928395352,0,0,396
642,3,4,82766.92929847047,0,0,399
643,3,4,82766.93931298741,0,0,404
644,3,4,82766.94932750435,0,0,408
645,3,4,82766.95934202129,0,0,412
646,3,4,82766.96935653823,0,0,416
647,3,4,82766.97937105516,0,0,422
648,3,4,82766.9893855721,0,0,426
649,3,4,82766.99940008904,0,0,429
650,3,4,82767.00941460599,0,0,436
651,3,4,82767.01942912293,0,0,444
652,3,4,82767.02944363987,0,0,451
653,3,4,82767.0394581568,0,0,458
654,3,4,82767.04947267374,0,0,464
655,3,4,82767.05948719068,0,0,472
656,3,4,82767.06950170762,0,0,478
657,3,4,82767.07951622456,0,0,485
658,3,4,82767.0895307415,0,0,492
659,3,4,82767.09954525843,0,0,499
660,3,4,82767.10955977537,0,0,504
661,3,4,82767.11957429232,0,0,512
662,3,4,82767.12958880926,0,0,519
663,3,4,82767.1396033262,0,0,526
664,3,4,82767.14961784313,0,0,532
665,3,4,82767.15963236007,0,0,536
666,3,4,82767.16964687701,0,0,540
667,3,4,82767.17966139395,0,0,544
668,3,4,82767.1896759109,0,0,547
669,3,4,82767.19969042783,0,0,551
670,3,4,82767.20970494476,0,0,555
671,3,4,82767.2197194617,0,0,559
672,3,4,82767.22973397865,0,0,563
673,3,4,82767.23974849559,0,0,566
674,3,4,82767.24976301253,0,0,569
675,3,4,82767.25977752947,0,0,571
676,3,4,82767.2697920464,0,0,572
677,3,4,82767.27980656334,0,0,573
678,3,4,82767.28982108028,0,0,573
679,3,4,82767.29983559722,0,0,576
680,3,4,82767.30985011416,0,0,576
681,3,4,82767.3198646311,0,0,576
682,3,4,82767.32987914803,0,0,579
683,3,4,82767.33989366498,0,0,580
684,3,4,82767.34990818192,0,0,581
685,3,4,82767.35992269886,0,0,582
686,3,4,82767.3699372158,0,0,583
687,3,4,82767.37995173274,0,0,585
688,3,4,82767.38996624967,0,0,587
689,3,4,82767.39998076661,0,0,588
690,3,4,82767.40999528355,0,0,589
691,3,4,82767.4200098005,0,0,590
692,3,4,82767.43002431744,0,0,591
693,3,4,82767.44003883436,0,0,592
694,3,4,82767.4500533513,0,0,593
695,3,4,82767.46006786825,0,0,593
696,3,4,82767.47008238519,0,0,593
697,3,4,82767.48009690213,0,0,592
698,3,4,82767.49011141907,0,0,591
699,3,4,82767.500125936,0,0,591
700,3,4,82767.51014045294,0,0,590
701,3,4,82767.52015496988,0,0,589
702,3,4,82767.53016948682,0,0,588
703,3,4,82767.54018400377,0,0,587
704,3,4,82767.55019852071,0,0,585
705,3,4,82767.56021303764,0,0,584
706,3,4,82767.57022755458,0,0,583
707,3,4,82767.58024207152,0,0,581
708,3,4,82767.59025658846,0,0,579
709,3,4,82767.6002711054,0,0,579
710,3,4,82767.61028562234,0,0,577
711,3,4,82767.62030013927,0,0,576
712,3,4,82767.63031465621,0,0,576
713,3,4,82767.64032917315,0,0,574
714,3,4,82767.6503436901,0,0,572
715,3,4,82767.66035820704,0,0,570
716,3,4,82767.67037272398,0,0,568
717,3,4,82767.68038724091,0,0,566
718,3,4,82767.69040175785,0,0,566
719,3,4,82767.70041627479,0,0,566
720,3,4,82767.71043079173,0,0,565
721,3,4,82767.72044530867,0,0,563
722,3,4,82767.7304598256,0,0,561
723,3,4,82767.74047434254,0,0,559
724,3,4,82767.75048885948,0,0,558
725,3,4,82767.76050337643,0,0,556
726,3,4,82767.77051789337,0,0,557
727,3,4,82767.78053241031,0,0,557
728,3,4,82767.79054692724,0,0,558
729,3,4,82767.80056144418,0,0,559
730,3,4,82767.81057596112,0,0,559
731,3,4,82767.82059047806,0,0,559
732,3,4,82767.830604995,0,0,559
733,3,4,82767.84061951195,0,0,560
734,3,4,82767.85063402887,0,0,561
735,3,4,82767.86064854581,0,0,562
736,3,4,82767.87066306276,0,0,562
737,3,4,82767.8806775797,0,0,565
738,3,4,82767.89069209664,0,0,567
739,3,4,82767.90070661358,0,0,569
740,3,4,82767.91072113051,0,0,572
741,3,4,82767.92073564745,0,0,574
742,3,4,82767.93075016439,0,0,575
743,3,4,82767.94076468133,0,0,577
744,3,4,82767.95077919828,0,0,578
745,3,4,82767.96079371522,0,0,580
746,3,4,82767.97080823214,0,0,580
747,3,4,82767.98082274909,0,0,583
748,3,4,82767.99083726603,0,0,583
749,3,4,82768.00085178297,0,0,584
750,3,4,82768.01086629991,0,0,585
751,3,4,82768.02088081684,0,0,587
752,3,4,82768.03089533378,0,0,590
753,3,4,82768.04090985072,0,0,592
754,3,4,82768.05092436766,0,0,595
755,3,4,82768.0609388846,0,0,597
756,3,4,82768.07095340155,0,0,600
757,3,4,82768.08096791847,0,0,602
758,3,4,82768.09098243542,0,0,603
759,3,4,82768.10099695236,0,0,604
760,3,4,82768.1110114693,0,0,605
761,3,4,82768.12102598624,0,0,606
762,3,4,82768.13104050318,0,0,608
763,3,4,82768.14105502011,0,0,609
764,3,4,82768.15106953705,0,0,611
765,3,4,82768.161084054,0,0,611
766,3,4,82768.17109857094,0,0,614
767,3,4,82768.18111308788,0,0,614
768,3,4,82768.19112760482,0,0,615
769,3,4,82768.20114212175,0,0,615
770,3,4,82768.21115663869,0,0,615
771,3,4,82768.22117115563,0,0,615
772,3,4,82768.23118567257,0,0,615
773,3,4,82768.24120018951,0,0,616
774,3,4,82768.25121470646,0,0,616
775,3,4,82768.26122922338,0,0,617
776,3,4,82768.27124374032,0,0,616
777,3,4,82768.28125825727,0,0,618
778,3,4,82768.29127277421,0,0,619
779,3,4,82768.30128729115,0,0,620
780,3,4,82768.31130180808,0,0,619
781,3,4,82768.32131632502,0,0,618
782,3,4,82768.33133084196,0,0,618
783,3,4,82768.3413453589,0,0,617
784,3,4,82768.35135987584,0,0,617
785,3,4,82768.36137439279,0,0,618
786,3,4,82768.37138890971,0,0,618
787,3,4,82768.38140342665,0,0,618
788,3,4,82768.3914179436,0,0,617
789,3,4,82768.40143246054,0,0,616
790,3,4,82768.41144697748,0,0,615
791,3,4,82768.42146149442,0,0,615
792,3,4,82768.43147601135,0,0,616
793,3,4,82768.44149052829,0,0,616
794,3,4,82768.45150504523,0,0,618
795,3,4,82768.46151956217,0,0,618
796,3,4,82768.47153407912,0,0,619
797,3,4,82768.48154859606,0,0,617
798,3,4,82768.49156311298,0,0,618
799,3,4,82768.50157762993,0,0,616
800,3,4,82768.51159214687,0,0,615
801,3,4,82768.52160666381,0,0,614
802,3,4,82768.53162118075,0,0,614
803,3,4,82768.5416356977,0,0,613
804,3,4,82768.55165021462,0,0,612
805,3,4,82768.56166473156,0,0,613
806,3,4,82768.5716792485,0,0,612
807,3,4,82768.58169376545,0,0,611
808,3,4,82768.59170828239,0,0,610
809,3,4,82768.60172279931,0,0,608
810,3,4,82768.61173731626,0,0,608
811,3,4,82768.6217518332,0,0,606
812,3,4,82768.63176635014,0,0,605
813,3,4,82768.64178086708,0,0,603
814,3,4,82768.65179538402,0,0,602
815,3,4,82768.66180990095,0,0,600
816,3,4,82768.67182441789,0,0,599
817,3,4,82768.68183893483,0,0,599
818,3,4,82768.69185345178,0,0,598
819,3,4,82768.70186796872,0,0,598
820,3,4,82768.71188248566,0,0,597
821,3,4,82768.72189700259,0,0,596
822,3,4,82768.73191151953,0,0,596
823,3,4,82768.74192603647,0,0,594
824,3,4,82768.75194055341,0,0,595
825,3,4,82768.76195507035,0,0,594
826,3,4,82768.7719695873,0,0,593
827,3,4,82768.78198410422,0,0,594
828,3,4,82768.79199862116,0,0,595
829,3,4,82768.8020131381,0,0,595
830,3,4,82768.81202765505,0,0,596
831,3,4,82768.82204217199,0,0,597
832,3,4,82768.83205668893,0,0,598
833,3,4,82768.84207120586,0,0,599
834,3,4,82768.8520857228,0,0,600
835,3,4,82768.86210023974,0,0,600
836,3,4,82768.87211475668,0,0,602
837,3,4,82768.88212927362,0,0,603
838,3,4,82768.89214379055,0,0,604
839,3,4,82768.9021583075,0,0,604
840,3,4,82768.91217282444,0,0,606
841,3,4,82768.92218734138,0,0,608
842,3,4,82768.93220185832,0,0,610
843,3,4,82768.94221637526,0,0,612
844,3,4,82768.95223089219,0,0,615
845,3,4,82768.96224540913,0,0,617
846,3,4,82768.97225992607,0,0,621
847,3,4,82768.98227444301,0,0,623
848,3,4,82768.99228895995,0,0,624
849,3,4,82769.0023034769,0,0,627
850,3,4,82769.01231799382,0,0,630
851,3,4,82769.02233251077,0,0,634
852,3,4,82769.0323470277,0,0,638
853,3,4,82769.04236154465,0,0,642
854,3,4,82769.05237606159,0,0,645
855,3,4,82769.06239057853,0,0,650
856,3,4,82769.07240509546,0,0,655
857,3,4,82769.0824196124,0,0,662
858,3,4,82769.09243412934,0,0,668
859,3,4,82769.10244864628,0,0,676
860,3,4,82769.11246316323,0,0,683
861,3,4,82769.12247768017,0,0,689
862,3,4,82769.1324921971,0,0,696
863,3,4,82769.14250671404,0,0,702
864,3,4,82769.15252123098,0,0,706
865,3,4,82769.16253574792,0,0,711
866,3,4,82769.17255026486,0,0,716
867,3,4,82769.18256478179,0,0,721
868,3,4,82769.19257929873,0,0,726
869,3,4,82769.20259381567,0,0,731
870,3,4,82769.21260833261,0,0,736
871,3,4,82769.22262284956,0,0,740
872,3,4,82769.2326373665,0,0,744
873,3,4,82769.24265188343,0,0,748
874,3,4,82769.25266640037,0,0,751
875,3,4,82769.26268091731,0,0,753
876,3,4,82769.27269543425,0,0,755
877,3,4,82769.28270995119,0,0,757
878,3,4,82769.29272446813,0,0,757
879,3,4,82769.30273898506,0,0,757
880,3,4,82769.312753502,0,0,755
881,3,4,82769.32276801894,0,0,752
882,3,4,82769.33278253589,0,0,749
883,3,4,82769.34279705283,0,0,745
884,3,4,82769.35281156977,0,0,740
885,3,4,82769.3628260867,0,0,736
886,3,4,82769.37284060364,0,0,732
887,3,4,82769.38285512058,0,0,728
888,3,4,82769.39286963752,0,0,723
889,3,4,82769.40288415446,0,0,718
890,3,4,82769.4128986714,0,0,712
891,3,4,82769.42291318833,0,0,708
892,3,4,82769.43292770527,0,0,702
893,3,4,82769.44294222222,0,0,697
894,3,4,82769.45295673916,0,0,692
895,3,4,82769.4629712561,0,0,687
896,3,4,82769.47298577303,0,0,681
897,3,4,82769.48300028997,0,0,675
898,3,4,82769.49301480691,0,0,667
899,3,4,82769.50302932385,0,0,659
900,3,4,82769.5130438408,0,0,655
901,3,4,82769.52305835774,0,0,648
902,3,4,82769.53307287466,0,0,643
903,3,4,82769.5430873916,0,0,638
904,3,4,82769.55310190855,0,0,634
905,3,4,82769.56311642549,0,0,629
906,3,4,82769.57313094243,0,0,626
907,3,4,82769.58314545937,0,0,624
908,3,4,82769.5931599763,0,0,621
909,3,4,82769.60317449324,0,0,619
910,3,4,82769.61318901018,0,0,619
911,3,4,82769.62320352712,0,0,619
912,3,4,82769.63321804407,0,0,619
913,3,4,82769.64323256101,0,0,619
914,3,4,82769.65324707793,0,0,620
915,3,4,82769.66326159488,0,0,623
916,3,4,82769.67327611182,0,0,626
917,3,4,82769.68329062876,0,0,630
918,3,4,82769.6933051457,0,0,632
919,3,4,82769.70331966264,0,0,633
920,3,4,82769.71333417957,0,0,633
921,3,4,82769.72334869651,0,0,632
922,3,4,82769.73336321345,0,0,630
923,3,4,82769.7433777304,0,0,629
924,3,4,82769.75339224734,0,0,628
925,3,4,82769.76340676426,0,0,628
926,3,4,82769.7734212812,0,0,627
927,3,4,82769.78343579815,0,0,627
928,3,4,82769.79345031509,0,0,624
929,3,4,82769.80346483203,0,0,625
930,3,4,82769.81347934897,0,0,624
931,3,4,82769.8234938659,0,0,622
932,3,4,82769.83350838284,0,0,620
933,3,4,82769.84352289978,0,0,617
934,3,4,82769.85353741673,0,0,613
935,3,4,82769.86355193367,0,0,609
936,3,4,82769.87356645061,0,0,606
937,3,4,82769.88358096754,0,0,604
938,3,4,82769.89359548448,0,0,599
939,3,4,82769.90361000142,0,0,596
940,3,4,82769.91362451836,0,0,591
941,3,4,82769.9236390353,0,0,585
942,3,4,82769.93365355225,0,0,580
943,3,4,82769.94366806917,0,0,576
944,3,4,82769.95368258611,0,0,571
945,3,4,82769.96369710306,0,0,566
946,3,4,82769.97371162,0,0,560
947,3,4,82769.98372613694,0,0,555
948,3,4,82769.99374065388,0,0,548
949,3,4,82770.00375517081,0,0,542
950,3,4,82770.01376968775,0,0,536
951,3,4,82770.02378420469,0,0,530
952,3,4,82770.03379872163,0,0,525
953,3,4,82770.04381323858,0,0,519
954,3,4,82770.0538277555,0,0,514
955,3,4,82770.06384227244,0,0,509
956,3,4,82770.07385678939,0,0,504
957,3,4,82770.08387130633,0,0,498
958,3,4,82770.09388582327,0,0,492
959,3,4,82770.10390034021,0,0,487
960,3,4,82770.11391485714,0,0,483
961,3,4,82770.12392937408,0,0,478
962,3,4,82770.13394389102,0,0,474
963,3,4,82770.14395840796,0,0,469
964,3,4,82770.1539729249,0,0,465
965,3,4,82770.16398744185,0,0,460
966,3,4,82770.17400195877,0,0,455
967,3,4,82770.18401647572,0,0,450
968,3,4,82770.19403099266,0,0,446
969,3,4,82770.2040455096,0,0,442
970,3,4,82770.21406002654,0,0,439
971,3,4,82770.22407454348,0,0,436
972,3,4,82770.23408906041,0,0,433
973,3,4,82770.24410357735,0,0,430
974,3,4,82770.2541180943,0,0,425
975,3,4,82770.26413261124,0,0,421
976,3,4,82770.27414712818,0,0,417
977,3,4,82770.28416164512,0,0,413
978,3,4,82770.29417616205,0,0,409
979,3,4,82770.30419067899,0,0,408
980,3,4,82770.31420519593,0,0,407
981,3,4,82770.32421971287,0,0,406
982,3,4,82770.33423422981,0,0,404
983,3,4,82770.34424874674,0,0,401
984,3,4,82770.35426326368,0,0,398
985,3,4,82770.36427778062,0,0,396
986,3,4,82770.37429229757,0,0,395
987,3,4,82770.3843068145,0,0,393
988,3,4,82770.39432133145,0,0,391
989,3,4,82770.40433584838,0,0,391
990,3,4,82770.41435036532,0,0,391
991,3,4,82770.42436488226,0,0,392
992,3,4,82770.4343793992,0,0,391
993,3,4,82770.44439391614,0,0,390
994,3,4,82770.45440843308,0,0,389
995,3,4,82770.46442295001,0,0,389
996,3,4,82770.47443746695,0,0,388
997,3,4,82770.4844519839,0,0,387
998,3,4,82770.49446650084,0,0,387
999,3,4,82770.50448101778,0,0,387
1000,3,4,82770.51449553472,0,0,387
1001,3,4,82770.52451005165,0,0,388
1002,3,4,82770.53452456859,0,0,389
1003,3,4,82770.54453908553,0,0,389
1004,3,4,82770.55455360247,0,0,390
1005,3,4,82770.56456811941,0,0,391
1006,3,4,82770.57458263636,0,0,392
1007,3,4,82770.58459715328,0,0,396
1008,3,4,82770.59461167023,0,0,401
1009,3,4,82770.60462618717,0,0,405
1010,3,4,82770.61464070411,0,0,409
1011,3,4,82770.62465522105,0,0,412
1012,3,4,82770.63466973798,0,0,416
1013,3,4,82770.64468425492,0,0,419
1014,3,4,82770.65469877186,0,0,423
1015,3,4,82770.6647132888,0,0,426
1016,3,4,82770.67472780574,0,0,430
1017,3,4,82770.68474232269,0,0,433
1018,3,4,82770.69475683961,0,0,436
1019,3,4,82770.70477135656,0,0,439
1020,3,4,82770.7147858735,0,0,441
1021,3,4,82770.72480039044,0,0,443
1022,3,4,82770.73481490738,0,0,445
1023,3,4,82770.74482942432,0,0,446
1024,3,4,82770.75484394125,0,0,449
1025,3,4,82770.76485845819,0,0,450
1026,3,4,82770.77487297513,0,0,451
1027,3,4,82770.78488749207,0,0,453
1028,3,4,82770.79490200902,0,0,453
1029,3,4,82770.80491652596,0,0,453
1030,3,4,82770.81493104289,0,0,451
1031,3,4,82770.82494555983,0,0,449
1032,3,4,82770.83496007677,0,0,446
1033,3,4,82770.84497459371,0,0,443
1034,3,4,82770.85498911065,0,0,441
1035,3,4,82770.8650036276,0,0,438
1036,3,4,82770.87501814452,0,0,435
1037,3,4,82770.88503266146,0,0,432
1038,3,4,82770.8950471784,0,0,428
1039,3,4,82770.90506169535,0,0,427
1040,3,4,82770.91507621229,0,0,425
1041,3,4,82770.92509072922,0,0,424
1042,3,4,82770.93510524616,0,0,424
1043,3,4,82770.9451197631,0,0,424
1044,3,4,82770.95513428004,0,0,423
1045,3,4,82770.96514879698,0,0,422
1046,3,4,82770.97516331392,0,0,421
1047,3,4,82770.98517783085,0,0,421
1048,3,4,82770.9951923478,0,0,421
1049,3,4,82771.00520686473,0,0,422
1050,3,4,82771.01522138168,0,0,423
1051,3,4,82771.02523589862,0,0,425
1052,3,4,82771.03525041556,0,0,427
1053,3,4,82771.04526493249,0,0,428
1054,3,4,82771.05527944943,0,0,427
1055,3,4,82771.06529396637,0,0,428
1056,3,4,82771.07530848331,0,0,428
1057,3,4,82771.08532300025,0,0,428
1058,3,4,82771.0953375172,0,0,429
1059,3,4,82771.10535203412,0,0,429
1060,3,4,82771.11536655106,0,0,430
1061,3,4,82771.125381068,0,0,430
1062,3,4,82771.13539558495,0,0,432
1063,3,4,82771.14541010189,0,0,433
1064,3,4,82771.15542461883,0,0,433
1065,3,4,82771.16543913576,0,0,435
1066,3,4,82771.1754536527,0,0,436
1067,3,4,82771.18546816964,0,0,439
1068,3,4,82771.19548268658,0,0,442
1069,3,4,82771.20549720353,0,0,444
1070,3,4,82771.21551172045,0,0,448
1071,3,4,82771.2255262374,0,0,451
1072,3,4,82771.23554075434,0,0,455
1073,3,4,82771.24555527128,0,0,458
1074,3,4,82771.25556978822,0,0,461
1075,3,4,82771.26558430516,0,0,464
1076,3,4,82771.27559882209,0,0,467
1077,3,4,82771.28561333903,0,0,471
1078,3,4,82771.29562785597,0,0,475
1079,3,4,82771.30564237291,0,0,478
1080,3,4,82771.31565688986,0,0,482
1081,3,4,82771.3256714068,0,0,486
1082,3,4,82771.33568592372,0,0,489
1083,3,4,82771.34570044067,0,0,491
1084,3,4,82771.35571495761,0,0,494
1085,3,4,82771.36572947455,0,0,496
1086,3,4,82771.37574399149,0,0,499
1087,3,4,82771.38575850843,0,0,502
1088,3,4,82771.39577302536,0,0,504
1089,3,4,82771.4057875423,0,0,507
1090,3,4,82771.41580205924,0,0,509
1091,3,4,82771.42581657619,0,0,511
1092,3,4,82771.43583109313,0,0,514
1093,3,4,82771.44584561007,0,0,515
1094,3,4,82771.455860127,0,0,518
1095,3,4,82771.46587464394,0,0,521
1096,3,4,82771.47588916088,0,0,524
1097,3,4,82771.48590367782,0,0,525
1098,3,4,82771.49591819476,0,0,527
1099,3,4,82771.50593271169,0,0,530
1100,3,4,82771.51594722863,0,0,532
1101,3,4,82771.52596174557,0,0,535
1102,3,4,82771.53597626252,0,0,538
1103,3,4,82771.54599077946,0,0,543
1104,3,4,82771.5560052964,0,0,547
1105,3,4,82771.56601981333,0,0,549
1106,3,4,82771.57603433027,0,0,551
1107,3,4,82771.58604884721,0,0,553
1108,3,4,82771.59606336415,0,0,555
1109,3,4,82771.6060778811,0,0,557
1110,3,4,82771.61609239804,0,0,559
1111,3,4,82771.62610691496,0,0,561
1112,3,4,82771.6361214319,0,0,563
1113,3,4,82771.64613594885,0,0,564
1114,3,4,82771.65615046579,0,0,566
1115,3,4,82771.66616498273,0,0,568
1116,3,4,82771.67617949967,0,0,569
1117,3,4,82771.6861940166,0,0,570
1118,3,4,82771.69620853354,0,0,572
1119,3,4,82771.70622305048,0,0,574
1120,3,4,82771.71623756742,0,0,576
1121,3,4,82771.72625208437,0,0,579
1122,3,4,82771.7362666013,0,0,581
1123,3,4,82771.74628111823,0,0,583
1124,3,4,82771.75629563518,0,0,584
1125,3,4,82771.76631015212,0,0,585
1126,3,4,82771.77632466906,0,0,586
1127,3,4,82771.786339186,0,0,587
1128,3,4,82771.79635370293,0,0,587
1129,3,4,82771.80636821987,0,0,587
1130,3,4,82771.81638273681,0,0,585
1131,3,4,82771.82639725375,0,0,584
1132,3,4,82771.8364117707,0,0,583
1133,3,4,82771.84642628764,0,0,581
1134,3,4,82771.85644080456,0,0,578
1135,3,4,82771.8664553215,0,0,576
1136,3,4,82771.87646983845,0,0,574
1137,3,4,82771.88648435539,0,0,571
1138,3,4,82771.89649887233,0,0,568
1139,3,4,82771.90651338927,0,0,565
1140,3,4,82771.9165279062,0,0,562
1141,3,4,82771.92654242314,0,0,559
1142,3,4,82771.93655694008,0,0,556
1143,3,4,82771.94657145703,0,0,551
1144,3,4,82771.95658597397,0,0,548
1145,3,4,82771.96660049091,0,0,544
1146,3,4,82771.97661500784,0,0,539
1147,3,4,82771.98662952478,0,0,536
1148,3,4,82771.99664404172,0,0,532
1149,3,4,82772.00665855866,0,0,528
1150,3,4,82772.0166730756,0,0,525
1151,3,4,82772.02668759254,0,0,520
1152,3,4,82772.03670210947,0,0,517
1153,3,4,82772.04671662641,0,0,514
1154,3,4,82772.05673114336,0,0,511
1155,3,4,82772.0667456603,0,0,508
1156,3,4,82772.07676017724,0,0,507
1157,3,4,82772.08677469417,0,0,506
1158,3,4,82772.09678921111,0,0,504
1159,3,4,82772.10680372805,0,0,503
1160,3,4,82772.11681824499,0,0,500
1161,3,4,82772.12683276193,0,0,499
1162,3,4,82772.13684727887,0,0,498
1163,3,4,82772.1468617958,0,0,497
1164,3,4,82772.15687631274,0,0,496
1165,3,4,82772.16689082969,0,0,493
1166,3,4,82772.17690534663,0,0,491
1167,3,4,82772.18691986357,0,0,487
1168,3,4,82772.19693438051,0,0,483
1169,3,4,82772.20694889744,0,0,479
1170,3,4,82772.21696341438,0,0,476
1171,3,4,82772.22697793132,0,0,473
1172,3,4,82772.23699244826,0,0,471
1173,3,4,82772.2470069652,0,0,468
1174,3,4,82772.25702148215,0,0,465
1175,3,4,82772.26703599907,0,0,463
1176,3,4,82772.27705051602,0,0,460
1177,3,4,82772.28706503296,0,0,456
1178,3,4,82772.2970795499,0,0,453
1179,3,4,82772.30709406684,0,0,449
1180,3,4,82772.31710858378,0,0,447
1181,3,4,82772.32712310071,0,0,444
1182,3,4,82772.33713761765,0,0,441
1183,3,4,82772.3471521346,0,0,440
1184,3,4,82772.35716665153,0,0,437
1185,3,4,82772.36718116848,0,0,435
1186,3,4,82772.3771956854,0,0,433
1187,3,4,82772.38721020235,0,0,431
1188,3,4,82772.39722471929,0,0,428
1189,3,4,82772.40723923623,0,0,428
1190,3,4,82772.41725375317,0,0,427
1191,3,4,82772.42726827011,0,0,427
1192,3,4,82772.43728278704,0,0,425
1193,3,4,82772.44729730398,0,0,426
1194,3,4,82772.45731182092,0,0,426
1195,3,4,82772.46732633786,0,0,426
1196,3,4,82772.4773408548,0,0,427
1197,3,4,82772.48735537175,0,0,428
1198,3,4,82772.49736988868,0,0,429
1199,3,4,82772.50738440562,0,0,430
1200,3,4,82772.51739892256,0,0,431
1201,3,4,82772.5274134395,0,0,431
1202,3,4,82772.53742795644,0,0,432
1203,3,4,82772.54744247338,0,0,433
1204,3,4,82772.55745699031,0,0,433
1205,3,4,82772.56747150725,0,0,434
1206,3,4,82772.5774860242,0,0,435
1207,3,4,82772.58750054114,0,0,435
1208,3,4,82772.59751505808,0,0,436
1209,3,4,82772.60752957502,0,0,436
1210,3,4,82772.61754409195,0,0,436
1211,3,4,82772.62755860889,0,0,436
1212,3,4,82772.63757312583,0,0,435
1213,3,4,82772.64758764277,0,0,436
1214,3,4,82772.65760215971,0,0,436
1215,3,4,82772.66761667664,0,0,436
1216,3,4,82772.67763119358,0,0,437
1217,3,4,82772.68764571052,0,0,438
1218,3,4,82772.69766022747,0,0,439
1219,3,4,82772.70767474441,0,0,439
1220,3,4,82772.71768926135,0,0,439
1221,3,4,82772.72770377828,0,0,439
1222,3,4,82772.73771829522,0,0,438
1223,3,4,82772.74773281216,0,0,441
1224,3,4,82772.7577473291,0,0,443
1225,3,4,82772.76776184604,0,0,443
1226,3,4,82772.77777636299,0,0,445
1227,3,4,82772.78779087991,0,0,446
1228,3,4,82772.79780539685,0,0,446
1229,3,4,82772.8078199138,0,0,448
1230,3,4,82772.81783443074,0,0,448
1231,3,4,82772.82784894768,0,0,450
1232,3,4,82772.83786346462,0,0,451
1233,3,4,82772.84787798155,0,0,452
1234,3,4,82772.85789249849,0,0,454
1235,3,4,82772.86790701543,0,0,455
1236,3,4,82772.87792153237,0,0,454
1237,3,4,82772.88793604932,0,0,455
1238,3,4,82772.89795056626,0,0,455
1239,3,4,82772.90796508318,0,0,455
1240,3,4,82772.91797960013,0,0,455
1241,3,4,82772.92799411707,0,0,456
1242,3,4,82772.93800863401,0,0,457
1243,3,4,82772.94802315095,0,0,457
1244,3,4,82772.95803766788,0,0,458
1245,3,4,82772.96805218482,0,0,459
1246,3,4,82772.97806670176,0,0,459
1247,3,4,82772.9880812187,0,0,459
1248,3,4,82772.99809573565,0,0,460
1249,3,4,82773.00811025259,0,0,462
1250,3,4,82773.01812476951,0,0,463
1251,3,4,82773.02813928646,0,0,463
1252,3,4,82773.0381538034,0,0,464
1253,3,4,82773.04816832034,0,0,464
1254,3,4,82773.05818283728,0,0,463
1255,3,4,82773.06819735422,0,0,464
1256,3,4,82773.07821187115,0,0,463
1257,3,4,82773.08822638809,0,0,464
1258,3,4,82773.09824090503,0,0,464
1259,3,4,82773.10825542198,0,0,464
1260,3,4,82773.11826993892,0,0,463
1261,3,4,82773.12828445586,0,0,464
1262,3,4,82773.13829897279,0,0,463
1263,3,4,82773.14831348973,0,0,463
1264,3,4,82773.15832800667,0,0,461
1265,3,4,82773.16834252361,0,0,462
1266,3,4,82773.17835704055,0,0,463
1267,3,4,82773.1883715575,0,0,462
1268,3,4,82773.19838607442,0,0,463
1269,3,4,82773.20840059136,0,0,464
1270,3,4,82773.2184151083,0,0,464
1271,3,4,82773.22842962525,0,0,464
1272,3,4,82773.23844414219,0,0,463
1273,3,4,82773.24845865912,0,0,463
1274,3,4,82773.25847317606,0,0,462
1275,3,4,82773.268487693,0,0,459
1276,3,4,82773.27850220994,0,0,459
1277,3,4,82773.28851672688,0,0,457
1278,3,4,82773.29853124382,0,0,456
1279,3,4,82773.30854576075,0,0,454
1280,3,4,82773.3185602777,0,0,451
1281,3,4,82773.32857479464,0,0,449
1282,3,4,82773.33858931158,0,0,449
1283,3,4,82773.34860382852,0,0,449
1284,3,4,82773.35861834546,0,0,448
1285,3,4,82773.36863286239,0,0,448
1286,3,4,82773.37864737933,0,0,448
1287,3,4,82773.38866189627,0,0,447
1288,3,4,82773.39867641321,0,0,447
1289,3,4,82773.40869093015,0,0,447
1290,3,4,82773.4187054471,0,0,448
1291,3,4,82773.42871996402,0,0,449
1292,3,4,82773.43873448097,0,0,451
1293,3,4,82773.44874899791,0,0,452
1294,3,4,82773.45876351485,0,0,453
1295,3,4,82773.46877803179,0,0,453
1296,3,4,82773.47879254873,0,0,454
1297,3,4,82773.48880706566,0,0,455
1298,3,4,82773.4988215826,0,0,457
1299,3,4,82773.50883609954,0,0,458
1300,3,4,82773.51885061648,0,0,461
1301,3,4,82773.52886513343,0,0,463
1302,3,4,82773.53887965035,0,0,467
1303,3,4,82773.5488941673,0,0,470
1304,3,4,82773.55890868424,0,0,473
1305,3,4,82773.56892320118,0,0,476
1306,3,4,82773.57893771812,0,0,480
1307,3,4,82773.58895223506,0,0,483
1308,3,4,82773.59896675199,0,0,487
1309,3,4,82773.60898126893,0,0,490
1310,3,4,82773.61899578587,0,0,493
1311,3,4,82773.62901030282,0,0,497
1312,3,4,82773.63902481976,0,0,502
1313,3,4,82773.6490393367,0,0,506
1314,3,4,82773.65905385363,0,0,511
1315,3,4,82773.66906837057,0,0,515
1316,3,4,82773.67908288751,0,0,519
1317,3,4,82773.68909740445,0,0,523
1318,3,4,82773.69911192139,0,0,527
1319,3,4,82773.70912643833,0,0,530
1320,3,4,82773.71914095526,0,0,534
1321,3,4,82773.7291554722,0,0,537
1322,3,4,82773.73916998915,0,0,542
1323,3,4,82773.74918450609,0,0,545
1324,3,4,82773.75919902303,0,0,546
1325,3,4,82773.76921353997,0,0,549
1326,3,4,82773.7792280569,0,0,551
1327,3,4,82773.78924257384,0,0,553
1328,3,4,82773.79925709078,0,0,555
1329,3,4,82773.80927160772,0,0,557
1330,3,4,82773.81928612466,0,0,559
1331,3,4,82773.82930064159,0,0,560
1332,3,4,82773.83931515853,0,0,561
1333,3,4,82773.84932967548,0,0,561
1334,3,4,82773.85934419242,0,0,561
1335,3,4,82773.86935870936,0,0,562
1336,3,4,82773.8793732263,0,0,562
1337,3,4,82773.88938774323,0,0,562
1338,3,4,82773.89940226017,0,0,561
1339,3,4,82773.90941677711,0,0,560
1340,3,4,82773.91943129405,0,0,560
1341,3,4,82773.929445811,0,0,560
1342,3,4,82773.93946032794,0,0,559
1343,3,4,82773.94947484486,0,0,560
1344,3,4,82773.9594893618,0,0,558
1345,3,4,82773.96950387875,0,0,557
1346,3,4,82773.97951839569,0,0,556
1347,3,4,82773.98953291263,0,0,554
1348,3,4,82773.99954742957,0,0,553
1349,3,4,82774.0095619465,0,0,553
1350,3,4,82774.01957646344,0,0,552
1351,3,4,82774.02959098038,0,0,551
1352,3,4,82774.03960549732,0,0,548
1353,3,4,82774.04962001427,0,0,545
1354,3,4,82774.05963453121,0,0,540
1355,3,4,82774.06964904814,0,0,535
1356,3,4,82774.07966356508,0,0,528
1357,3,4,82774.08967808202,0,0,521
1358,3,4,82774.09969259896,0,0,514
1359,3,4,82774.1097071159,0,0,506
1360,3,4,82774.11972163283,0,0,497
1361,3,4,82774.12973614977,0,0,491
1362,3,4,82774.13975066671,0,0,483
1363,3,4,82774.14976518365,0,0,475
1364,3,4,82774.1597797006,0,0,467
1365,3,4,82774.16979421754,0,0,459
1366,3,4,82774.17980873447,0,0,453
1367,3,4,82774.1898232514,0,0,447
1368,3,4,82774.19983776835,0,0,441
1369,3,4,82774.20985228529,0,0,436
1370,3,4,82774.21986680223,0,0,430
1371,3,4,82774.22988131917,0,0,426
1372,3,4,82774.2398958361,0,0,422
1373,3,4,82774.24991035304,0,0,418
1374,3,4,82774.25992486998,0,0,416
1375,3,4,82774.26993938693,0,0,413
1376,3,4,82774.27995390387,0,0,411
1377,3,4,82774.28996842081,0,0,409
1378,3,4,82774.29998293774,0,0,407
1379,3,4,82774.30999745468,0,0,407
1380,3,4,82774.32001197162,0,0,405
1381,3,4,82774.33002648856,0,0,404
1382,3,4,82774.3400410055,0,0,404
1383,3,4,82774.35005552245,0,0,405
1384,3,4,82774.36007003937,0,0,404
1385,3,4,82774.37008455631,0,0,405
1386,3,4,82774.38009907326,0,0,406
1387,3,4,82774.3901135902,0,0,407
1388,3,4,82774.40012810714,0,0,406
1389,3,4,82774.41014262407,0,0,408
1390,3,4,82774.42015714101,0,0,410
1391,3,4,82774.43017165795,0,0,412
1392,3,4,82774.44018617489,0,0,413
1393,3,4,82774.45020069183,0,0,415
1394,3,4,82774.46021520878,0,0,415
1395,3,4,82774.4702297257,0,0,417
1396,3,4,82774.48024424264,0,0,417
1397,3,4,82774.49025875959,0,0,418
1398,3,4,82774.50027327653,0,0,420
1399,3,4,82774.51028779347,0,0,422
1400,3,4,82774.52030231041,0,0,425
1401,3,4,82774.53031682734,0,0,428
1402,3,4,82774.54033134428,0,0,430
1403,3,4,82774.55034586122,0,0,432
1404,3,4,82774.56036037816,0,0,433
1405,3,4,82774.5703748951,0,0,436
1406,3,4,82774.58038941205,0,0,440
1407,3,4,82774.59040392897,0,0,444
1408,3,4,82774.60041844592,0,0,448
1409,3,4,82774.61043296286,0,0,449
1410,3,4,82774.6204474798,0,0,451
1411,3,4,82774.63046199674,0,0,454
1412,3,4,82774.64047651368,0,0,455
1413,3,4,82774.65049103061,0,0,457
1414,3,4,82774.66050554755,0,0,458
1415,3,4,82774.6705200645,0,0,458
1416,3,4,82774.68053458144,0,0,460
1417,3,4,82774.69054909838,0,0,460
1418,3,4,82774.7005636153,0,0,460
1419,3,4,82774.71057813225,0,0,459
1420,3,4,82774.72059264919,0,0,456
1421,3,4,82774.73060716613,0,0,452
1422,3,4,82774.74062168307,0,0,449
1423,3,4,82774.75063620001,0,0,445
1424,3,4,82774.76065071694,0,0,440
1425,3,4,82774.77066523388,0,0,435
1426,3,4,82774.78067975082,0,0,429
1427,3,4,82774.79069426777,0,0,422
1428,3,4,82774.8007087847,0,0,414
1429,3,4,82774.81072330165,0,0,408
1430,3,4,82774.82073781858,0,0,400
1431,3,4,82774.83075233552,0,0,392
1432,3,4,82774.84076685246,0,0,382
1433,3,4,82774.8507813694,0,0,375
1434,3,4,82774.86079588634,0,0,366
1435,3,4,82774.87081040328,0,0,358
1436,3,4,82774.88082492021,0,0,350
1437,3,4,82774.89083943715,0,0,343
1438,3,4,82774.9008539541,0,0,335
1439,3,4,82774.91086847104,0,0,329
1440,3,4,82774.92088298798,0,0,322
1441,3,4,82774.93089750492,0,0,317
1442,3,4,82774.94091202185,0,0,313
1443,3,4,82774.95092653879,0,0,311
1444,3,4,82774.96094105573,0,0,309
1445,3,4,82774.97095557267,0,0,307
1446,3,4,82774.98097008961,0,0,308
1447,3,4,82774.99098460654,0,0,309
1448,3,4,82775.00099912348,0,0,311
1449,3,4,82775.01101364043,0,0,313
1450,3,4,82775.02102815737,0,0,317
1451,3,4,82775.03104267431,0,0,320
1452,3,4,82775.04105719125,0,0,323
1453,3,4,82775.05107170818,0,0,326
1454,3,4,82775.06108622512,0,0,329
1455,3,4,82775.07110074206,0,0,334
1456,3,4,82775.081115259,0,0,338
1457,3,4,82775.09112977594,0,0,342
1458,3,4,82775.10114429289,0,0,346
1459,3,4,82775.11115880981,0,0,350
1460,3,4,82775.12117332676,0,0,354
1461,3,4,82775.1311878437,0,0,359
1462,3,4,82775.14120236064,0,0,364
1463,3,4,82775.15121687758,0,0,368
1464,3,4,82775.16123139452,0,0,371
1465,3,4,82775.17124591145,0,0,377
1466,3,4,82775.18126042839,0,0,381
1467,3,4,82775.19127494533,0,0,385
1468,3,4,82775.20128946227,0,0,390
1469,3,4,82775.21130397922,0,0,393
1470,3,4,82775.22131849616,0,0,399
1471,3,4,82775.23133301309,0,0,404
1472,3,4,82775.24134753003,0,0,408
1473,3,4,82775.25136204697,0,0,412
1474,3,4,82775.26137656391,0,0,415
1475,3,4,82775.27139108085,0,0,418
1476,3,4,82775.28140559778,0,0,419
1477,3,4,82775.29142011472,0,0,420
1478,3,4,82775.30143463166,0,0,420
1479,3,4,82775.3114491486,0,0,419
1480,3,4,82775.32146366555,0,0,418
1481,3,4,82775.33147818249,0,0,417
1482,3,4,82775.34149269942,0,0,414
1483,3,4,82775.35150721636,0,0,413
1484,3,4,82775.3615217333,0,0,411
1485,3,4,82775.37153625024,0,0,408
1486,3,4,82775.38155076718,0,0,406
1487,3,4,82775.39156528412,0,0,404
1488,3,4,82775.40157980105,0,0,403
1489,3,4,82775.411594318,0,0,401
1490,3,4,82775.42160883493,0,0,399
1491,3,4,82775.43162335188,0,0,397
1492,3,4,82775.44163786882,0,0,394
1493,3,4,82775.45165238576,0,0,390
1494,3,4,82775.46166690269,0,0,387
1495,3,4,82775.47168141963,0,0,384
1496,3,4,82775.48169593657,0,0,381
1497,3,4,82775.49171045351,0,0,378
1498,3,4,82775.50172497045,0,0,376
1499,3,4,82775.5117394874,0,0,375
1500,3,4,82775.52175400432,0,0,375
1501,3,4,82775.53176852126,0,0,373
1502,3,4,82775.5417830382,0,0,374
1503,3,4,82775.55179755515,0,0,375
1504,3,4,82775.56181207209,0,0,376
1505,3,4,82775.57182658902,0,0,379
1506,3,4,82775.58184110596,0,0,380
1507,3,4,82775.5918556229,0,0,382
1508,3,4,82775.60187013984,0,0,383
1509,3,4,82775.61188465678,0,0,384
1510,3,4,82775.62189917373,0,0,386
1511,3,4,82775.63191369065,0,0,389
1512,3,4,82775.6419282076,0,0,391
1513,3,4,82775.65194272454,0,0,393
1514,3,4,82775.66195724148,0,0,398
1515,3,4,82775.67197175842,0,0,401
1516,3,4,82775.68198627536,0,0,405
1517,3,4,82775.69200079229,0,0,409
1518,3,4,82775.70201530923,0,0,414
1519,3,4,82775.71202982617,0,0,418
1520,3,4,82775.72204434311,0,0,423
1521,3,4,82775.73205886006,0,0,431
1522,3,4,82775.742073377,0,0,435
1523,3,4,82775.75208789392,0,0,440
1524,3,4,82775.76210241087,0,0,445
1525,3,4,82775.77211692781,0,0,449
1526,3,4,82775.78213144475,0,0,453
1527,3,4,82775.79214596169,0,0,456
1528,3,4,82775.80216047863,0,0,460
1529,3,4,82775.81217499556,0,0,463
1530,3,4,82775.8221895125,0,0,467
1531,3,4,82775.83220402944,0,0,471
1532,3,4,82775.84221854639,0,0,475
1533,3,4,82775.85223306333,0,0,480
1534,3,4,82775.86224758025,0,0,484
1535,3,4,82775.8722620972,0,0,488
1536,3,4,82775.88227661414,0,0,494
1537,3,4,82775.89229113108,0,0,498
1538,3,4,82775.90230564802,0,0,502
1539,3,4,82775.91232016496,0,0,506
1540,3,4,82775.92233468189,0,0,509
1541,3,4,82775.93234919883,0,0,513
1542,3,4,82775.94236371577,0,0,518
1543,3,4,82775.95237823272,0,0,522
1544,3,4,82775.96239274966,0,0,527
1545,3,4,82775.9724072666,0,0,531
1546,3,4,82775.98242178353,0,0,535
1547,3,4,82775.99243630047,0,0,539
1548,3,4,82776.00245081741,0,0,542
1549,3,4,82776.01246533435,0,0,546
1550,3,4,82776.0224798513,0,0,548
1551,3,4,82776.03249436824,0,0,551
1552,3,4,82776.04250888516,0,0,554
1553,3,4,82776.0525234021,0,0,557
1554,3,4,82776.06253791905,0,0,560
1555,3,4,82776.07255243599,0,0,562
1556,3,4,82776.08256695293,0,0,564
1557,3,4,82776.09258146987,0,0,566
1558,3,4,82776.1025959868,0,0,568
1559,3,4,82776.11261050374,0,0,569
1560,3,4,82776.12262502068,0,0,570
1561,3,4,82776.13263953762,0,0,570
1562,3,4,82776.14265405457,0,0,569
1563,3,4,82776.15266857149,0,0,567
1564,3,4,82776.16268308843,0,0,564
1565,3,4,82776.17269760538,0,0,564
1566,3,4,82776.18271212232,0,0,563
1567,3,4,82776.19272663926,0,0,561
1568,3,4,82776.2027411562,0,0,560
1569,3,4,82776.21275567313,0,0,557
1570,3,4,82776.22277019007,0,0,554
1571,3,4,82776.23278470701,0,0,551
1572,3,4,82776.24279922395,0,0,549
1573,3,4,82776.2528137409,0,0,548
1574,3,4,82776.26282825784,0,0,547
1575,3,4,82776.27284277476,0,0,547
1576,3,4,82776.2828572917,0,0,547
1577,3,4,82776.29287180865,0,0,547
1578,3,4,82776.30288632559,0,0,548
1579,3,4,82776.31290084253,0,0,548
1580,3,4,82776.32291535947,0,0,548
1581,3,4,82776.3329298764,0,0,548
1582,3,4,82776.34294439334,0,0,548
1583,3,4,82776.35295891028,0,0,548
1584,3,4,82776.36297342723,0,0,547
1585,3,4,82776.37298794417,0,0,547
1586,3,4,82776.38300246111,0,0,546
1587,3,4,82776.39301697804,0,0,546
1588,3,4,82776.40303149498,0,0,545
1589,3,4,82776.41304601192,0,0,545
1590,3,4,82776.42306052886,0,0,545
1591,3,4,82776.4330750458,0,0,544
1592,3,4,82776.44308956273,0,0,544
1593,3,4,82776.45310407967,0,0,545
1594,3,4,82776.46311859661,0,0,545
1595,3,4,82776.47313311356,0,0,548
1596,3,4,82776.4831476305,0,0,550
1597,3,4,82776.49316214744,0,0,554
1598,3,4,82776.50317666437,0,0,557
1599,3,4,82776.51319118131,0,0,561
1600,3,4,82776.52320569825,0,0,564
1601,3,4,82776.53322021519,0,0,568
1602,3,4,82776.54323473213,0,0,570
1603,3,4,82776.55324924907,0,0,573
1604,3,4,82776.563263766,0,0,575
1605,3,4,82776.57327828294,0,0,579
1606,3,4,82776.58329279989,0,0,582
1607,3,4,82776.59330731683,0,0,584
1608,3,4,82776.60332183377,0,0,587
1609,3,4,82776.61333635071,0,0,591
1610,3,4,82776.62335086764,0,0,593
1611,3,4,82776.63336538458,0,0,596
1612,3,4,82776.64337990152,0,0,599
1613,3,4,82776.65339441846,0,0,602
1614,3,4,82776.6634089354,0,0,604
1615,3,4,82776.67342345235,0,0,606
1616,3,4,82776.68343796927,0,0,607
1617,3,4,82776.69345248622,0,0,608
1618,3,4,82776.70346700316,0,0,610
1619,3,4,82776.7134815201,0,0,610
1620,3,4,82776.72349603704,0,0,614
1621,3,4,82776.73351055397,0,0,616
1622,3,4,82776.74352507091,0,0,618
1623,3,4,82776.75353958785,0,0,620
1624,3,4,82776.7635541048,0,0,623
1625,3,4,82776.77356862173,0,0,625
1626,3,4,82776.78358313868,0,0,628
1627,3,4,82776.7935976556,0,0,632
1628,3,4,82776.80361217255,0,0,635
1629,3,4,82776.81362668949,0,0,639
1630,3,4,82776.82364120643,0,0,642
1631,3,4,82776.83365572337,0,0,645
1632,3,4,82776.84367024031,0,0,648
1633,3,4,82776.85368475724,0,0,651
1634,3,4,82776.86369927418,0,0,653
1635,3,4,82776.87371379112,0,0,655
1636,3,4,82776.88372830806,0,0,657
1637,3,4,82776.893742825,0,0,659
1638,3,4,82776.90375734195,0,0,660
1639,3,4,82776.91377185888,0,0,662
1640,3,4,82776.92378637582,0,0,663
1641,3,4,82776.93380089276,0,0,665
1642,3,4,82776.9438154097,0,0,666
1643,3,4,82776.95382992664,0,0,666
1644,3,4,82776.96384444358,0,0,666
1645,3,4,82776.97385896051,0,0,666
1646,3,4,82776.98387347745,0,0,667
1647,3,4,82776.9938879944,0,0,667
1648,3,4,82777.00390251134,0,0,668
1649,3,4,82777.01391702828,0,0,670
1650,3,4,82777.0239315452,0,0,671
1651,3,4,82777.03394606215,0,0,673
1652,3,4,82777.04396057909,0,0,673
1653,3,4,82777.05397509603,0,0,675
1654,3,4,82777.06398961297,0,0,676
1655,3,4,82777.07400412991,0,0,676
1656,3,4,82777.08401864684,0,0,675
1657,3,4,82777.09403316378,0,0,673
1658,3,4,82777.10404768072,0,0,673
1659,3,4,82777.11406219767,0,0,671
1660,3,4,82777.12407671461,0,0,670
1661,3,4,82777.13409123155,0,0,668
1662,3,4,82777.14410574848,0,0,666
1663,3,4,82777.15412026542,0,0,663
1664,3,4,82777.16413478236,0,0,661
1665,3,4,82777.1741492993,0,0,657
1666,3,4,82777.18416381624,0,0,655
1667,3,4,82777.19417833319,0,0,652
1668,3,4,82777.20419285011,0,0,646
1669,3,4,82777.21420736705,0,0,642
1670,3,4,82777.224221884,0,0,639
1671,3,4,82777.23423640094,0,0,635
1672,3,4,82777.24425091788,0,0,632
1673,3,4,82777.2542654348,0,0,629
1674,3,4,82777.26427995175,0,0,625
1675,3,4,82777.27429446869,0,0,620
1676,3,4,82777.28430898563,0,0,616
1677,3,4,82777.29432350257,0,0,611
1678,3,4,82777.30433801952,0,0,608
1679,3,4,82777.31435253644,0,0,605
1680,3,4,82777.32436705338,0,0,603
1681,3,4,82777.33438157033,0,0,601
1682,3,4,82777.34439608727,0,0,600
1683,3,4,82777.35441060421,0,0,601
1684,3,4,82777.36442512115,0,0,601
1685,3,4,82777.37443963808,0,0,603
1686,3,4,82777.38445415502,0,0,606
1687,3,4,82777.39446867196,0,0,608
1688,3,4,82777.4044831889,0,0,611
1689,3,4,82777.41449770585,0,0,613
1690,3,4,82777.42451222279,0,0,614
1691,3,4,82777.43452673971,0,0,614
1692,3,4,82777.44454125666,0,0,614
1693,3,4,82777.4545557736,0,0,614
1694,3,4,82777.46457029054,0,0,611
1695,3,4,82777.47458480748,0,0,609
1696,3,4,82777.48459932442,0,0,608
1697,3,4,82777.49461384135,0,0,606
1698,3,4,82777.50462835829,0,0,604
1699,3,4,82777.51464287523,0,0,602
1700,3,4,82777.52465739218,0,0,601
1701,3,4,82777.53467190912,0,0,600
1702,3,4,82777.54468642604,0,0,598
1703,3,4,82777.55470094299,0,0,597
1704,3,4,82777.56471545993,0,0,596
1705,3,4,82777.57472997687,0,0,594
1706,3,4,82777.58474449381,0,0,593
1707,3,4,82777.59475901075,0,0,591
1708,3,4,82777.60477352768,0,0,591
1709,3,4,82777.61478804462,0,0,590
1710,3,4,82777.62480256156,0,0,589
1711,3,4,82777.6348170785,0,0,588
1712,3,4,82777.64483159545,0,0,586
1713,3,4,82777.65484611239,0,0,585
1714,3,4,82777.66486062932,0,0,584
1715,3,4,82777.67487514626,0,0,583
1716,3,4,82777.6848896632,0,0,582
1717,3,4,82777.69490418014,0,0,580
1718,3,4,82777.70491869708,0,0,577
1719,3,4,82777.71493321403,0,0,575
1720,3,4,82777.72494773095,0,0,571
1721,3,4,82777.7349622479,0,0,568
1722,3,4,82777.74497676484,0,0,562
1723,3,4,82777.75499128178,0,0,559
1724,3,4,82777.76500579872,0,0,555
1725,3,4,82777.77502031566,0,0,551
1726,3,4,82777.78503483259,0,0,546
1727,3,4,82777.79504934953,0,0,542
1728,3,4,82777.80506386647,0,0,537
1729,3,4,82777.81507838341,0,0,531
1730,3,4,82777.82509290036,0,0,529
1731,3,4,82777.83510741728,0,0,525
1732,3,4,82777.84512193422,0,0,521
1733,3,4,82777.85513645117,0,0,517
1734,3,4,82777.86515096811,0,0,512
1735,3,4,82777.87516548505,0,0,507
1736,3,4,82777.88518000199,0,0,504
1737,3,4,82777.89519451892,0,0,499
1738,3,4,82777.90520903586,0,0,496
1739,3,4,82777.9152235528,0,0,492
1740,3,4,82777.92523806974,0,0,488
1741,3,4,82777.93525258669,0,0,484
1742,3,4,82777.94526710363,0,0,481
1743,3,4,82777.95528162055,0,0,478
1744,3,4,82777.9652961375,0,0,475
1745,3,4,82777.97531065444,0,0,472
1746,3,4,82777.98532517138,0,0,470
1747,3,4,82777.99533968832,0,0,468
1748,3,4,82778.00535420526,0,0,467
1749,3,4,82778.01536872219,0,0,465
1750,3,4,82778.02538323913,0,0,464
1751,3,4,82778.03539775607,0,0,461
1752,3,4,82778.04541227302,0,0,459
1753,3,4,82778.05542678996,0,0,454
1754,3,4,82778.0654413069,0,0,451
1755,3,4,82778.07545582383,0,0,444
1756,3,4,82778.08547034077,0,0,440
1757,3,4,82778.09548485771,0,0,434
1758,3,4,82778.10549937465,0,0,428
1759,3,4,82778.1155138916,0,0,422
1760,3,4,82778.12552840852,0,0,415
1761,3,4,82778.13554292546,0,0,408
1762,3,4,82778.1455574424,0,0,401
1763,3,4,82778.15557195935,0,0,394
1764,3,4,82778.16558647629,0,0,386
1765,3,4,82778.17560099323,0,0,380
1766,3,4,82778.18561551016,0,0,375
1767,3,4,82778.1956300271,0,0,371
1768,3,4,82778.20564454404,0,0,366
1769,3,4,82778.21565906098,0,0,362
1770,3,4,82778.22567357792,0,0,356
1771,3,4,82778.23568809486,0,0,352
1772,3,4,82778.24570261179,0,0,348
1773,3,4,82778.25571712873,0,0,343
1774,3,4,82778.26573164568,0,0,339
1775,3,4,82778.27574616262,0,0,335
1776,3,4,82778.28576067956,0,0,331
1777,3,4,82778.2957751965,0,0,330
1778,3,4,82778.30578971343,0,0,328
1779,3,4,82778.31580423037,0,0,329
1780,3,4,82778.32581874731,0,0,330
1781,3,4,82778.33583326425,0,0,332
1782,3,4,82778.3458477812,0,0,336
1783,3,4,82778.35586229814,0,0,341
1784,3,4,82778.36587681506,0,0,346
1785,3,4,82778.375891332,0,0,355
1786,3,4,82778.38590584895,0,0,363
1787,3,4,82778.39592036589,0,0,373
1788,3,4,82778.40593488283,0,0,380
1789,3,4,82778.41594939976,0,0,390
1790,3,4,82778.4259639167,0,0,399
1791,3,4,82778.43597843364,0,0,407
1792,3,4,82778.44599295058,0,0,414
1793,3,4,82778.45600746752,0,0,422
1794,3,4,82778.46602198447,0,0,431
1795,3,4,82778.4760365014,0,0,439
1796,3,4,82778.48605101834,0,0,447
1797,3,4,82778.49606553528,0,0,455
1798,3,4,82778.50608005222,0,0,463
1799,3,4,82778.51609456916,0,0,471
1800,3,4,82778.5261090861,0,0,478
1801,3,4,82778.53612360303,0,0,486
1802,3,4,82778.54613811997,0,0,491
1803,3,4,82778.55615263691,0,0,499
1804,3,4,82778.56616715385,0,0,506
1805,3,4,82778.5761816708,0,0,512
1806,3,4,82778.58619618774,0,0,518
1807,3,4,82778.59621070467,0,0,522
1808,3,4,82778.6062252216,0,0,526
1809,3,4,82778.61623973855,0,0,529
1810,3,4,82778.62625425549,0,0,532
1811,3,4,82778.63626877243,0,0,535
1812,3,4,82778.64628328937,0,0,537
1813,3,4,82778.6562978063,0,0,539
1814,3,4,82778.66631232324,0,0,539
1815,3,4,82778.67632684018,0,0,541
1816,3,4,82778.68634135713,0,0,540
1817,3,4,82778.69635587407,0,0,540
1818,3,4,82778.706370391,0,0,541
1819,3,4,82778.71638490794,0,0,541
1820,3,4,82778.72639942488,0,0,542
1821,3,4,82778.73641394182,0,0,543
1822,3,4,82778.74642845876,0,0,543
1823,3,4,82778.7564429757,0,0,543
1824,3,4,82778.76645749263,0,0,541
1825,3,4,82778.77647200957,0,0,540
1826,3,4,82778.78648652651,0,0,537
1827,3,4,82778.79650104346,0,0,537
1828,3,4,82778.8065155604,0,0,536
1829,3,4,82778.81653007734,0,0,536
1830,3,4,82778.82654459427,0,0,536
1831,3,4,82778.83655911121,0,0,537
1832,3,4,82778.84657362815,0,0,537
1833,3,4,82778.85658814509,0,0,537
1834,3,4,82778.86660266203,0,0,540
1835,3,4,82778.87661717898,0,0,543
1836,3,4,82778.8866316959,0,0,548
1837,3,4,82778.89664621284,0,0,552
1838,3,4,82778.90666072979,0,0,555
1839,3,4,82778.91667524673,0,0,559
1840,3,4,82778.92668976367,0,0,563
1841,3,4,82778.93670428061,0,0,568
1842,3,4,82778.94671879754,0,0,571
1843,3,4,82778.95673331448,0,0,575
1844,3,4,82778.96674783142,0,0,578
1845,3,4,82778.97676234836,0,0,580
1846,3,4,82778.9867768653,0,0,581
1847,3,4,82778.99679138223,0,0,581
1848,3,4,82779.00680589917,0,0,579
1849,3,4,82779.01682041612,0,0,577
1850,3,4,82779.02683493306,0,0,575
1851,3,4,82779.03684945,0,0,570
1852,3,4,82779.04686396694,0,0,564
1853,3,4,82779.05687848387,0,0,557
1854,3,4,82779.06689300081,0,0,549
1855,3,4,82779.07690751775,0,0,539
1856,3,4,82779.0869220347,0,0,527
1857,3,4,82779.09693655164,0,0,520
1858,3,4,82779.10695106858,0,0,510
1859,3,4,82779.1169655855,0,0,502
1860,3,4,82779.12698010245,0,0,490
1861,3,4,82779.13699461939,0,0,481
1862,3,4,82779.14700913633,0,0,469
1863,3,4,82779.15702365327,0,0,459
1864,3,4,82779.16703817021,0,0,451
1865,3,4,82779.17705268714,0,0,443
1866,3,4,82779.18706720408,0,0,435
1867,3,4,82779.19708172102,0,0,425
1868,3,4,82779.20709623797,0,0,417
1869,3,4,82779.21711075491,0,0,409
1870,3,4,82779.22712527185,0,0,401
1871,3,4,82779.23713978878,0,0,394
1872,3,4,82779.24715430572,0,0,387
1873,3,4,82779.25716882266,0,0,380
1874,3,4,82779.2671833396,0,0,374
1875,3,4,82779.27719785654,0,0,368
1876,3,4,82779.28721237347,0,0,361
1877,3,4,82779.29722689041,0,0,355
1878,3,4,82779.30724140735,0,0,350
1879,3,4,82779.3172559243,0,0,345
1880,3,4,82779.32727044124,0,0,340
1881,3,4,82779.33728495818,0,0,336
1882,3,4,82779.3472994751,0,0,331
1883,3,4,82779.35731399205,0,0,327
1884,3,4,82779.36732850899,0,0,324
1885,3,4,82779.37734302593,0,0,321
1886,3,4,82779.38735754287,0,0,319
1887,3,4,82779.39737205982,0,0,317
1888,3,4,82779.40738657674,0,0,315
1889,3,4,82779.41740109368,0,0,313
1890,3,4,82779.42741561063,0,0,311
1891,3,4,82779.43743012757,0,0,307
1892,3,4,82779.44744464451,0,0,307
1893,3,4,82779.45745916145,0,0,307
1894,3,4,82779.46747367838,0,0,309
1895,3,4,82779.47748819532,0,0,311
1896,3,4,82779.48750271226,0,0,314
1897,3,4,82779.4975172292,0,0,317
1898,3,4,82779.50753174615,0,0,321
1899,3,4,82779.51754626309,0,0,324
1900,3,4,82779.52756078001,0,0,329
1901,3,4,82779.53757529696,0,0,335
1902,3,4,82779.5475898139,0,0,341
1903,3,4,82779.55760433084,0,0,347
1904,3,4,82779.56761884778,0,0,351
1905,3,4,82779.57763336471,0,0,354
1906,3,4,82779.58764788165,0,0,357
1907,3,4,82779.59766239859,0,0,361
1908,3,4,82779.60767691553,0,0,365
1909,3,4,82779.61769143248,0,0,368
1910,3,4,82779.62770594942,0,0,374
1911,3,4,82779.63772046634,0,0,376
1912,3,4,82779.64773498329,0,0,378
1913,3,4,82779.65774950023,0,0,378
1914,3,4,82779.66776401717,0,0,380
1915,3,4,82779.67777853411,0,0,380
1916,3,4,82779.68779305105,0,0,378
1917,3,4,82779.69780756798,0,0,375
1918,3,4,82779.70782208492,0,0,370
1919,3,4,82779.71783660186,0,0,365
1920,3,4,82779.7278511188,0,0,360
1921,3,4,82779.73786563575,0,0,355
1922,3,4,82779.74788015269,0,0,349
1923,3,4,82779.75789466962,0,0,344
1924,3,4,82779.76790918656,0,0,338
1925,3,4,82779.7779237035,0,0,331
1926,3,4,82779.78793822044,0,0,323
1927,3,4,82779.79795273738,0,0,314
1928,3,4,82779.80796725432,0,0,307
1929,3,4,82779.81798177125,0,0,301
1930,3,4,82779.8279962882,0,0,296
1931,3,4,82779.83801080514,0,0,293
1932,3,4,82779.84802532208,0,0,290
1933,3,4,82779.85803983902,0,0,290
1934,3,4,82779.86805435595,0,0,288
1935,3,4,82779.87806887289,0,0,289
1936,3,4,82779.88808338983,0,0,288
1937,3,4,82779.89809790677,0,0,289
1938,3,4,82779.90811242371,0,0,290
1939,3,4,82779.91812694065,0,0,291
1940,3,4,82779.92814145758,0,0,296
1941,3,4,82779.93815597452,0,0,299
1942,3,4,82779.94817049147,0,0,302
1943,3,4,82779.9581850084,0,0,307
1944,3,4,82779.96819952535,0,0,311
1945,3,4,82779.97821404229,0,0,315
1946,3,4,82779.98822855922,0,0,318
1947,3,4,82779.99824307616,0,0,320
1948,3,4,82780.0082575931,0,0,322
1949,3,4,82780.01827211004,0,0,324
1950,3,4,82780.02828662698,0,0,327
1951,3,4,82780.03830114393,0,0,329
1952,3,4,82780.04831566085,0,0,331
1953,3,4,82780.0583301778,0,0,333
1954,3,4,82780.06834469474,0,0,335
1955,3,4,82780.07835921168,0,0,338
1956,3,4,82780.08837372862,0,0,341
1957,3,4,82780.09838824556,0,0,346
1958,3,4,82780.10840276249,0,0,352
1959,3,4,82780.11841727943,0,0,358
1960,3,4,82780.12843179637,0,0,363
1961,3,4,82780.13844631331,0,0,370
1962,3,4,82780.14846083026,0,0,376
1963,3,4,82780.15847534718,0,0,384
1964,3,4,82780.16848986413,0,0,392
1965,3,4,82780.17850438107,0,0,402
1966,3,4,82780.18851889801,0,0,413
1967,3,4,82780.19853341495,0,0,424
1968,3,4,82780.20854793189,0,0,435
1969,3,4,82780.21856244882,0,0,445
1970,3,4,82780.22857696576,0,0,455
1971,3,4,82780.2385914827,0,0,465
1972,3,4,82780.24860599964,0,0,474
1973,3,4,82780.25862051659,0,0,484
1974,3,4,82780.26863503353,0,0,494
1975,3,4,82780.27864955046,0,0,504
1976,3,4,82780.2886640674,0,0,515
1977,3,4,82780.29867858434,0,0,524
1978,3,4,82780.30869310128,0,0,532
1979,3,4,82780.31870761822,0,0,541
1980,3,4,82780.32872213516,0,0,548
1981,3,4,82780.33873665209,0,0,554
1982,3,4,82780.34875116903,0,0,558
1983,3,4,82780.35876568597,0,0,562
1984,3,4,82780.36878020292,0,0,563
1985,3,4,82780.37879471986,0,0,564
1986,3,4,82780.3888092368,0,0,564
1987,3,4,82780.39882375373,0,0,564
1988,3,4,82780.40883827067,0,0,564
1989,3,4,82780.41885278761,0,0,564
1990,3,4,82780.42886730455,0,0,564
1991,3,4,82780.4388818215,0,0,564
1992,3,4,82780.44889633842,0,0,563
1993,3,4,82780.45891085536,0,0,563
1994,3,4,82780.4689253723,0,0,561
1995,3,4,82780.47893988925,0,0,559
1996,3,4,82780.48895440619,0,0,556
1997,3,4,82780.49896892313,0,0,552
1998,3,4,82780.50898344006,0,0,547
1999,3,4,82780.518997957,0,0,541
2000,3,4,82780.52901247394,0,0,536
2001,3,4,82780.53902699088,0,0,531
2002,3,4,82780.54904150782,0,0,527
2003,3,4,82780.55905602477,0,0,521
2004,3,4,82780.5690705417,0,0,516
2005,3,4,82780.57908505863,0,0,510
2006,3,4,82780.58909957558,0,0,504
2007,3,4,82780.59911409252,0,0,497
2008,3,4,82780.60912860946,0,0,492
2009,3,4,82780.6191431264,0,0,486
2010,3,4,82780.62915764333,0,0,480
2011,3,4,82780.63917216027,0,0,475
2012,3,4,82780.64918667721,0,0,471
2013,3,4,82780.65920119415,0,0,466
2014,3,4,82780.6692157111,0,0,461
2015,3,4,82780.67923022804,0,0,457
2016,3,4,82780.68924474496,0,0,452
2017,3,4,82780.6992592619,0,0,448
2018,3,4,82780.70927377885,0,0,443
2019,3,4,82780.71928829579,0,0,436
2020,3,4,82780.72930281273,0,0,430
2021,3,4,82780.73931732966,0,0,426
2022,3,4,82780.7493318466,0,0,422
2023,3,4,82780.75934636354,0,0,416
2024,3,4,82780.76936088048,0,0,410
2025,3,4,82780.77937539743,0,0,404
2026,3,4,82780.78938991437,0,0,398
2027,3,4,82780.7994044313,0,0,391
2028,3,4,82780.80941894824,0,0,388
2029,3,4,82780.81943346518,0,0,383
2030,3,4,82780.82944798212,0,0,379
2031,3,4,82780.83946249906,0,0,374
2032,3,4,82780.849477016,0,0,368
2033,3,4,82780.85949153293,0,0,362
2034,3,4,82780.86950604987,0,0,357
2035,3,4,82780.87952056681,0,0,351
2036,3,4,82780.88953508376,0,0,347
2037,3,4,82780.8995496007,0,0,343
2038,3,4,82780.90956411764,0,0,338
2039,3,4,82780.91957863457,0,0,337
2040,3,4,82780.92959315151,0,0,334
2041,3,4,82780.93960766845,0,0,331
2042,3,4,82780.94962218539,0,0,327
2043,3,4,82780.95963670233,0,0,324
2044,3,4,82780.96965121927,0,0,320
2045,3,4,82780.9796657362,0,0,315
2046,3,4,82780.98968025314,0,0,313
2047,3,4,82780.99969477009,0,0,309
2048,3,4,82781.00970928703,0,0,307
2049,3,4,82781.01972380397,0,0,304
2050,3,4,82781.0297383209,0,0,302
2051,3,4,82781.03975283784,0,0,300
2052,3,4,82781.04976735478,0,0,298
2053,3,4,82781.05978187172,0,0,295
2054,3,4,82781.06979638866,0,0,294
2055,3,4,82781.0798109056,0,0,293
2056,3,4,82781.08982542253,0,0,291
2057,3,4,82781.09983993947,0,0,290
2058,3,4,82781.10985445642,0,0,291
2059,3,4,82781.11986897336,0,0,290
2060,3,4,82781.1298834903,0,0,290
2061,3,4,82781.13989800724,0,0,289
2062,3,4,82781.14991252417,0,0,289
2063,3,4,82781.15992704111,0,0,289
2064,3,4,82781.16994155805,0,0,288
2065,3,4,82781.179956075,0,0,289
2066,3,4,82781.18997059193,0,0,290
2067,3,4,82781.19998510888,0,0,291
2068,3,4,82781.2099996258,0,0,292
2069,3,4,82781.22001414275,0,0,294
2070,3,4,82781.23002865969,0,0,294
2071,3,4,82781.24004317663,0,0,295
2072,3,4,82781.25005769357,0,0,295
2073,3,4,82781.26007221051,0,0,295
2074,3,4,82781.27008672744,0,0,296
2075,3,4,82781.28010124438,0,0,297
2076,3,4,82781.29011576132,0,0,298
2077,3,4,82781.30013027826,0,0,299
2078,3,4,82781.3101447952,0,0,300
2079,3,4,82781.32015931213,0,0,301
2080,3,4,82781.33017382908,0,0,302
2081,3,4,82781.34018834602,0,0,302
2082,3,4,82781.35020286296,0,0,302
2083,3,4,82781.3602173799,0,0,302
2084,3,4,82781.37023189684,0,0,303
2085,3,4,82781.38024641377,0,0,305
2086,3,4,82781.39026093071,0,0,306
2087,3,4,82781.40027544765,0,0,308
2088,3,4,82781.4102899646,0,0,310
2089,3,4,82781.42030448154,0,0,310
2090,3,4,82781.43031899848,0,0,312
2091,3,4,82781.4403335154,0,0,315
2092,3,4,82781.45034803235,0,0,317
2093,3,4,82781.46036254929,0,0,321
2094,3,4,82781.47037706623,0,0,325
2095,3,4,82781.48039158317,0,0,328
2096,3,4,82781.49040610011,0,0,329
2097,3,4,82781.50042061704,0,0,333
2098,3,4,82781.51043513398,0,0,335
2099,3,4,82781.52044965093,0,0,338
2100,3,4,82781.53046416787,0,0,340
2101,3,4,82781.54047868481,0,0,344
2102,3,4,82781.55049320175,0,0,347
2103,3,4,82781.56050771868,0,0,351
2104,3,4,82781.57052223562,0,0,356
2105,3,4,82781.58053675256,0,0,361
2106,3,4,82781.5905512695,0,0,365
2107,3,4,82781.60056578644,0,0,371
2108,3,4,82781.61058030337,0,0,378
2109,3,4,82781.62059482031,0,0,383
2110,3,4,82781.63060933726,0,0,389
2111,3,4,82781.6406238542,0,0,395
2112,3,4,82781.65063837114,0,0,400
2113,3,4,82781.66065288808,0,0,407
2114,3,4,82781.67066740501,0,0,413
2115,3,4,82781.68068192195,0,0,419
2116,3,4,82781.69069643889,0,0,424
2117,3,4,82781.70071095583,0,0,431
2118,3,4,82781.71072547277,0,0,435
2119,3,4,82781.72073998972,0,0,441
2120,3,4,82781.73075450664,0,0,449
2121,3,4,82781.74076902359,0,0,455
2122,3,4,82781.75078354053,0,0,460
2123,3,4,82781.76079805747,0,0,466
2124,3,4,82781.77081257441,0,0,471
2125,3,4,82781.78082709135,0,0,476
2126,3,4,82781.79084160828,0,0,481
2127,3,4,82781.80085612522,0,0,484
2128,3,4,82781.81087064216,0,0,491
2129,3,4,82781.8208851591,0,0,496
2130,3,4,82781.83089967605,0,0,501
2131,3,4,82781.84091419299,0,0,506
2132,3,4,82781.85092870992,0,0,512
2133,3,4,82781.86094322686,0,0,517
2134,3,4,82781.8709577438,0,0,522
2135,3,4,82781.88097226074,0,0,526
2136,3,4,82781.89098677768,0,0,530
2137,3,4,82781.90100129461,0,0,532
2138,3,4,82781.91101581155,0,0,536
2139,3,4,82781.92103032849,0,0,539
2140,3,4,82781.93104484543,0,0,541
2141,3,4,82781.94105936238,0,0,544
2142,3,4,82781.95107387932,0,0,546
2143,3,4,82781.96108839625,0,0,549
2144,3,4,82781.97110291319,0,0,552
2145,3,4,82781.98111743013,0,0,556
2146,3,4,82781.99113194707,0,0,557
2147,3,4,82782.00114646401,0,0,560
2148,3,4,82782.01116098095,0,0,562
2149,3,4,82782.02117549788,0,0,564
2150,3,4,82782.03119001482,0,0,568
2151,3,4,82782.04120453176,0,0,570
2152,3,4,82782.0512190487,0,0,574
2153,3,4,82782.06123356565,0,0,576
2154,3,4,82782.07124808259,0,0,578
2155,3,4,82782.08126259952,0,0,579
2156,3,4,82782.09127711646,0,0,582
2157,3,4,82782.1012916334,0,0,584
2158,3,4,82782.11130615034,0,0,585
2159,3,4,82782.12132066728,0,0,586
2160,3,4,82782.13133518423,0,0,587
2161,3,4,82782.14134970115,0,0,587
2162,3,4,82782.1513642181,0,0,586
2163,3,4,82782.16137873504,0,0,585
2164,3,4,82782.17139325198,0,0,584
2165,3,4,82782.18140776892,0,0,582
2166,3,4,82782.19142228585,0,0,581
2167,3,4,82782.20143680279,0,0,578
2168,3,4,82782.21145131973,0,0,576
2169,3,4,82782.22146583667,0,0,572
2170,3,4,82782.23148035361,0,0,570
2171,3,4,82782.24149487056,0,0,567
2172,3,4,82782.25150938748,0,0,564
2173,3,4,82782.26152390442,0,0,562
2174,3,4,82782.27153842137,0,0,559
2175,3,4,82782.28155293831,0,0,557
2176,3,4,82782.29156745525,0,0,555
2177,3,4,82782.30158197219,0,0,553
2178,3,4,82782.31159648912,0,0,551
2179,3,4,82782.32161100606,0,0,551
2180,3,4,82782.331625523,0,0,551
2181,3,4,82782.34164003994,0,0,552
2182,3,4,82782.35165455689,0,0,555
2183,3,4,82782.36166907383,0,0,557
2184,3,4,82782.37168359075,0,0,559
2185,3,4,82782.3816981077,0,0,563
2186,3,4,82782.39171262464,0,0,566
2187,3,4,82782.40172714158,0,0,568
2188,3,4,82782.41174165852,0,0,569
2189,3,4,82782.42175617546,0,0,571
2190,3,4,82782.43177069239,0,0,572
2191,3,4,82782.44178520933,0,0,572
2192,3,4,82782.45179972627,0,0,571
2193,3,4,82782.46181424322,0,0,571
2194,3,4,82782.47182876016,0,0,569
2195,3,4,82782.48184327708,0,0,567
2196,3,4,82782.49185779403,0,0,563
2197,3,4,82782.50187231097,0,0,561
2198,3,4,82782.51188682791,0,0,557
2199,3,4,82782.52190134485,0,0,553
2200,3,4,82782.5319158618,0,0,549
2201,3,4,82782.54193037872,0,0,545
2202,3,4,82782.55194489566,0,0,542
2203,3,4,82782.5619594126,0,0,537
2204,3,4,82782.57197392955,0,0,532
2205,3,4,82782.58198844649,0,0,528
2206,3,4,82782.59200296343,0,0,523
2207,3,4,82782.60201748036,0,0,519
2208,3,4,82782.6120319973,0,0,514
2209,3,4,82782.62204651424,0,0,510
2210,3,4,82782.63206103118,0,0,505
2211,3,4,82782.64207554812,0,0,500
2212,3,4,82782.65209006506,0,0,495
2213,3,4,82782.66210458199,0,0,491
2214,3,4,82782.67211909893,0,0,487
2215,3,4,82782.68213361588,0,0,483
2216,3,4,82782.69214813282,0,0,480
2217,3,4,82782.70216264976,0,0,477
2218,3,4,82782.7121771667,0,0,475
2219,3,4,82782.72219168363,0,0,472
2220,3,4,82782.73220620057,0,0,472
2221,3,4,82782.74222071751,0,0,472
2222,3,4,82782.75223523445,0,0,472
2223,3,4,82782.7622497514,0,0,473
2224,3,4,82782.77226426832,0,0,474
2225,3,4,82782.78227878526,0,0,475
2226,3,4,82782.7922933022,0,0,474
2227,3,4,82782.80230781915,0,0,475
2228,3,4,82782.81232233609,0,0,475
2229,3,4,82782.82233685303,0,0,475
2230,3,4,82782.83235136996,0,0,475
2231,3,4,82782.8423658869,0,0,475
2232,3,4,82782.85238040384,0,0,476
2233,3,4,82782.86239492078,0,0,477
2234,3,4,82782.87240943772,0,0,478
2235,3,4,82782.88242395467,0,0,480
2236,3,4,82782.8924384716,0,0,480
2237,3,4,82782.90245298854,0,0,481
2238,3,4,82782.91246750548,0,0,481
2239,3,4,82782.92248202242,0,0,481
2240,3,4,82782.93249653936,0,0,480
2241,3,4,82782.9425110563,0,0,479
2242,3,4,82782.95252557323,0,0,478
2243,3,4,82782.96254009017,0,0,477
2244,3,4,82782.97255460711,0,0,476
2245,3,4,82782.98256912405,0,0,475
2246,3,4,82782.992583641,0,0,473
2247,3,4,82783.00259815794,0,0,471
2248,3,4,82783.01261267487,0,0,470
2249,3,4,82783.0226271918,0,0,468
2250,3,4,82783.03264170875,0,0,466
2251,3,4,82783.04265622569,0,0,463
2252,3,4,82783.05267074263,0,0,461
2253,3,4,82783.06268525956,0,0,459
2254,3,4,82783.0726997765,0,0,456
2255,3,4,82783.08271429344,0,0,453
2256,3,4,82783.09272881038,0,0,450
2257,3,4,82783.10274332733,0,0,447
2258,3,4,82783.11275784427,0,0,444
2259,3,4,82783.1227723612,0,0,442
2260,3,4,82783.13278687814,0,0,439
2261,3,4,82783.14280139508,0,0,437
2262,3,4,82783.15281591202,0,0,435
2263,3,4,82783.16283042896,0,0,434
2264,3,4,82783.1728449459,0,0,433
2265,3,4,82783.18285946283,0,0,431
2266,3,4,82783.19287397977,0,0,431
2267,3,4,82783.20288849671,0,0,430
2268,3,4,82783.21290301366,0,0,428
2269,3,4,82783.2229175306,0,0,427
2270,3,4,82783.23293204754,0,0,426
2271,3,4,82783.24294656447,0,0,424
2272,3,4,82783.25296108141,0,0,424
2273,3,4,82783.26297559835,0,0,422
2274,3,4,82783.27299011529,0,0,421
2275,3,4,82783.28300463223,0,0,422
2276,3,4,82783.29301914918,0,0,420
2277,3,4,82783.3030336661,0,0,420
2278,3,4,82783.31304818304,0,0,422
2279,3,4,82783.32306269999,0,0,422
2280,3,4,82783.33307721693,0,0,425
2281,3,4,82783.34309173387,0,0,426
2282,3,4,82783.3531062508,0,0,426
2283,3,4,82783.36312076774,0,0,427
2284,3,4,82783.37313528468,0,0,429
2285,3,4,82783.38314980162,0,0,431
2286,3,4,82783.39316431856,0,0,434
2287,3,4,82783.4031788355,0,0,436
2288,3,4,82783.41319335243,0,0,439
2289,3,4,82783.42320786937,0,0,442
2290,3,4,82783.43322238632,0,0,443
2291,3,4,82783.44323690326,0,0,444
2292,3,4,82783.4532514202,0,0,444
2293,3,4,82783.46326593714,0,0,445
2294,3,4,82783.47328045407,0,0,446
2295,3,4,82783.48329497101,0,0,446
2296,3,4,82783.49330948795,0,0,447
2297,3,4,82783.5033240049,0,0,448
2298,3,4,82783.51333852184,0,0,448
2299,3,4,82783.52335303878,0,0,450
2300,3,4,82783.5333675557,0,0,451
2301,3,4,82783.54338207265,0,0,452
2302,3,4,82783.55339658959,0,0,452
2303,3,4,82783.56341110653,0,0,453
2304,3,4,82783.57342562347,0,0,453
2305,3,4,82783.58344014041,0,0,454
2306,3,4,82783.59345465734,0,0,453
2307,3,4,82783.60346917428,0,0,452
2308,3,4,82783.61348369122,0,0,452
2309,3,4,82783.62349820817,0,0,451
2310,3,4,82783.63351272511,0,0,449
2311,3,4,82783.64352724203,0,0,448
2312,3,4,82783.65354175898,0,0,447
2313,3,4,82783.66355627592,0,0,445
2314,3,4,82783.67357079286,0,0,444
2315,3,4,82783.6835853098,0,0,442
2316,3,4,82783.69359982674,0,0,441
2317,3,4,82783.70361434367,0,0,440
2318,3,4,82783.71362886061,0,0,438
2319,3,4,82783.72364337755,0,0,437
2320,3,4,82783.7336578945,0,0,436
2321,3,4,82783.74367241144,0,0,434
2322,3,4,82783.75368692838,0,0,435
2323,3,4,82783.7637014453,0,0,435
2324,3,4,82783.77371596225,0,0,436
2325,3,4,82783.78373047919,0,0,437
2326,3,4,82783.79374499613,0,0,438
2327,3,4,82783.80375951307,0,0,439
2328,3,4,82783.81377403002,0,0,439
2329,3,4,82783.82378854694,0,0,440
2330,3,4,82783.83380306388,0,0,441
2331,3,4,82783.84381758083,0,0,442
2332,3,4,82783.85383209777,0,0,444
2333,3,4,82783.86384661471,0,0,447
2334,3,4,82783.87386113165,0,0,449
2335,3,4,82783.88387564858,0,0,452
2336,3,4,82783.89389016552,0,0,453
2337,3,4,82783.90390468246,0,0,456
2338,3,4,82783.9139191994,0,0,459
2339,3,4,82783.92393371635,0,0,461
2340,3,4,82783.93394823327,0,0,465
2341,3,4,82783.94396275021,0,0,469
2342,3,4,82783.95397726716,0,0,474
2343,3,4,82783.9639917841,0,0,477
2344,3,4,82783.97400630104,0,0,481
2345,3,4,82783.98402081798,0,0,485
2346,3,4,82783.99403533491,0,0,489
2347,3,4,82784.00404985185,0,0,495
2348,3,4,82784.01406436879,0,0,501
2349,3,4,82784.02407888573,0,0,507
2350,3,4,82784.03409340268,0,0,513
2351,3,4,82784.04410791962,0,0,518
2352,3,4,82784.05412243654,0,0,523
2353,3,4,82784.06413695349,0,0,526
2354,3,4,82784.07415147043,0,0,531
2355,3,4,82784.08416598737,0,0,535
2356,3,4,82784.09418050431,0,0,538
2357,3,4,82784.10419502125,0,0,543
2358,3,4,82784.11420953818,0,0,545
2359,3,4,82784.12422405512,0,0,548
2360,3,4,82784.13423857206,0,0,553
2361,3,4,82784.144253089,0,0,557
2362,3,4,82784.15426760595,0,0,560
2363,3,4,82784.16428212289,0,0,563
2364,3,4,82784.17429663982,0,0,565
2365,3,4,82784.18431115676,0,0,568
2366,3,4,82784.1943256737,0,0,571
2367,3,4,82784.20434019064,0,0,573
2368,3,4,82784.21435470758,0,0,576
2369,3,4,82784.22436922451,0,0,578
2370,3,4,82784.23438374145,0,0,579
2371,3,4,82784.2443982584,0,0,582
2372,3,4,82784.25441277534,0,0,584
2373,3,4,82784.26442729228,0,0,586
2374,3,4,82784.27444180922,0,0,588
2375,3,4,82784.28445632615,0,0,590
2376,3,4,82784.29447084309,0,0,591
2377,3,4,82784.30448536003,0,0,592
2378,3,4,82784.31449987697,0,0,592
2379,3,4,82784.32451439391,0,0,593
2380,3,4,82784.33452891085,0,0,594
2381,3,4,82784.34454342778,0,0,594
2382,3,4,82784.35455794472,0,0,593
2383,3,4,82784.36457246167,0,0,593
2384,3,4,82784.3745869786,0,0,593
2385,3,4,82784.38460149555,0,0,592
2386,3,4,82784.39461601249,0,0,591
2387,3,4,82784.40463052942,0,0,588
2388,3,4,82784.41464504636,0,0,587
2389,3,4,82784.4246595633,0,0,585
2390,3,4,82784.43467408024,0,0,582
2391,3,4,82784.44468859718,0,0,579
2392,3,4,82784.45470311413,0,0,577
2393,3,4,82784.46471763105,0,0,574
2394,3,4,82784.474732148,0,0,571
2395,3,4,82784.48474666494,0,0,566
2396,3,4,82784.49476118188,0,0,562
2397,3,4,82784.50477569882,0,0,559
2398,3,4,82784.51479021575,0,0,557
2399,3,4,82784.52480473269,0,0,554
2400,3,4,82784.53481924963,0,0,550
2401,3,4,82784.54483376657,0,0,547
2402,3,4,82784.55484828351,0,0,543
2403,3,4,82784.56486280046,0,0,542
2404,3,4,82784.57487731738,0,0,541
2405,3,4,82784.58489183433,0,0,542
2406,3,4,82784.59490635127,0,0,543
2407,3,4,82784.60492086821,0,0,543
2408,3,4,82784.61493538515,0,0,543
2409,3,4,82784.62494990209,0,0,541
2410,3,4,82784.63496441902,0,0,537
2411,3,4,82784.64497893596,0,0,532
2412,3,4,82784.6549934529,0,0,525
2413,3,4,82784.66500796984,0,0,518
2414,3,4,82784.67502248679,0,0,510
2415,3,4,82784.68503700373,0,0,502
2416,3,4,82784.69505152066,0,0,495
2417,3,4,82784.7050660376,0,0,487
2418,3,4,82784.71508055454,0,0,481
2419,3,4,82784.72509507148,0,0,475
2420,3,4,82784.73510958842,0,0,468
2421,3,4,82784.74512410536,0,0,463
2422,3,4,82784.75513862229,0,0,457
2423,3,4,82784.76515313923,0,0,454
2424,3,4,82784.77516765617,0,0,451
2425,3,4,82784.78518217312,0,0,448
2426,3,4,82784.79519669006,0,0,448
2427,3,4,82784.80521120699,0,0,448
2428,3,4,82784.81522572393,0,0,449
2429,3,4,82784.82524024087,0,0,452
2430,3,4,82784.83525475781,0,0,455
2431,3,4,82784.84526927475,0,0,460
2432,3,4,82784.8552837917,0,0,465
2433,3,4,82784.86529830862,0,0,470
2434,3,4,82784.87531282556,0,0,475
2435,3,4,82784.8853273425,0,0,478
2436,3,4,82784.89534185945,0,0,482
2437,3,4,82784.90535637639,0,0,485
2438,3,4,82784.91537089333,0,0,488
2439,3,4,82784.92538541026,0,0,491
2440,3,4,82784.9353999272,0,0,492
2441,3,4,82784.94541444414,0,0,493
2442,3,4,82784.95542896108,0,0,493
2443,3,4,82784.96544347802,0,0,493
2444,3,4,82784.97545799497,0,0,494
2445,3,4,82784.9854725119,0,0,495
2446,3,4,82784.99548702883,0,0,495
2447,3,4,82785.00550154578,0,0,495
2448,3,4,82785.01551606272,0,0,497
2449,3,4,82785.02553057966,0,0,497
2450,3,4,82785.0355450966,0,0,497
2451,3,4,82785.04555961353,0,0,496
2452,3,4,82785.05557413047,0,0,493
2453,3,4,82785.06558864741,0,0,492
2454,3,4,82785.07560316435,0,0,492
2455,3,4,82785.0856176813,0,0,491
2456,3,4,82785.09563219822,0,0,490
2457,3,4,82785.10564671516,0,0,487
2458,3,4,82785.1156612321,0,0,487
2459,3,4,82785.12567574905,0,0,488
2460,3,4,82785.13569026599,0,0,487
2461,3,4,82785.14570478293,0,0,488
2462,3,4,82785.15571929986,0,0,488
2463,3,4,82785.1657338168,0,0,488
2464,3,4,82785.17574833374,0,0,487
2465,3,4,82785.18576285068,0,0,487
2466,3,4,82785.19577736763,0,0,486
2467,3,4,82785.20579188457,0,0,484
2468,3,4,82785.2158064015,0,0,483
2469,3,4,82785.22582091844,0,0,482
2470,3,4,82785.23583543538,0,0,481
2471,3,4,82785.24584995232,0,0,480
2472,3,4,82785.25586446926,0,0,480
2473,3,4,82785.2658789862,0,0,478
2474,3,4,82785.27589350313,0,0,477
2475,3,4,82785.28590802007,0,0,474
2476,3,4,82785.29592253701,0,0,470
2477,3,4,82785.30593705396,0,0,468
2478,3,4,82785.3159515709,0,0,465
2479,3,4,82785.32596608784,0,0,463
2480,3,4,82785.33598060477,0,0,461
2481,3,4,82785.34599512171,0,0,459
2482,3,4,82785.35600963865,0,0,457
2483,3,4,82785.36602415559,0,0,457
2484,3,4,82785.37603867253,0,0,456
2485,3,4,82785.38605318946,0,0,455
2486,3,4,82785.3960677064,0,0,455
2487,3,4,82785.40608222334,0,0,455
2488,3,4,82785.41609674029,0,0,455
2489,3,4,82785.42611125723,0,0,455
2490,3,4,82785.43612577417,0,0,456
2491,3,4,82785.4461402911,0,0,456
2492,3,4,82785.45615480804,0,0,456
2493,3,4,82785.46616932498,0,0,456
2494,3,4,82785.47618384192,0,0,456
2495,3,4,82785.48619835886,0,0,457
2496,3,4,82785.4962128758,0,0,457
2497,3,4,82785.50622739273,0,0,459
2498,3,4,82785.51624190967,0,0,461
2499,3,4,82785.52625642662,0,0,464
2500,3,4,82785.53627094356,0,0,467
2501,3,4,82785.5462854605,0,0,471
2502,3,4,82785.55629997744,0,0,476
2503,3,4,82785.56631449437,0,0,480
2504,3,4,82785.57632901131,0,0,484
2505,3,4,82785.58634352825,0,0,488
2506,3,4,82785.5963580452,0,0,491
2507,3,4,82785.60637256214,0,0,494
2508,3,4,82785.61638707908,0,0,496
2509,3,4,82785.626401596,0,0,499
2510,3,4,82785.63641611295,0,0,503
2511,3,4,82785.64643062989,0,0,506
2512,3,4,82785.65644514683,0,0,507
2513,3,4,82785.66645966377,0,0,509
2514,3,4,82785.6764741807,0,0,511
2515,3,4,82785.68648869764,0,0,513
2516,3,4,82785.69650321458,0,0,516
2517,3,4,82785.70651773152,0,0,519
2518,3,4,82785.71653224847,0,0,522
2519,3,4,82785.7265467654,0,0,526
2520,3,4,82785.73656128233,0,0,529
2521,3,4,82785.74657579928,0,0,532
2522,3,4,82785.75659031622,0,0,533
2523,3,4,82785.76660483316,0,0,535
2524,3,4,82785.7766193501,0,0,537
2525,3,4,82785.78663386704,0,0,538
2526,3,4,82785.79664838397,0,0,539
2527,3,4,82785.80666290091,0,0,541
2528,3,4,82785.81667741785,0,0,543
2529,3,4,82785.8266919348,0,0,544
2530,3,4,82785.83670645174,0,0,546
2531,3,4,82785.84672096868,0,0,545
2532,3,4,82785.8567354856,0,0,547
2533,3,4,82785.86675000255,0,0,547
2534,3,4,82785.87676451949,0,0,547
2535,3,4,82785.88677903643,0,0,546
2536,3,4,82785.89679355337,0,0,545
2537,3,4,82785.90680807031,0,0,545
2538,3,4,82785.91682258724,0,0,545
2539,3,4,82785.92683710418,0,0,544
2540,3,4,82785.93685162113,0,0,546
2541,3,4,82785.94686613807,0,0,546
2542,3,4,82785.95688065501,0,0,546
2543,3,4,82785.96689517194,0,0,545
2544,3,4,82785.97690968888,0,0,545
2545,3,4,82785.98692420582,0,0,543
2546,3,4,82785.99693872276,0,0,542
2547,3,4,82786.0069532397,0,0,542
2548,3,4,82786.01696775664,0,0,542
2549,3,4,82786.02698227357,0,0,541
2550,3,4,82786.03699679051,0,0,539
2551,3,4,82786.04701130746,0,0,539
2552,3,4,82786.0570258244,0,0,538
2553,3,4,82786.06704034134,0,0,537
2554,3,4,82786.07705485828,0,0,537
2555,3,4,82786.08706937521,0,0,537
2556,3,4,82786.09708389215,0,0,537
2557,3,4,82786.10709840909,0,0,538
2558,3,4,82786.11711292603,0,0,538
2559,3,4,82786.12712744297,0,0,539
2560,3,4,82786.13714195992,0,0,539
2561,3,4,82786.14715647684,0,0,538
2562,3,4,82786.15717099379,0,0,537
2563,3,4,82786.16718551073,0,0,538
2564,3,4,82786.17720002767,0,0,540
2565,3,4,82786.18721454461,0,0,542
2566,3,4,82786.19722906155,0,0,544
2567,3,4,82786.20724357848,0,0,546
2568,3,4,82786.21725809542,0,0,547
2569,3,4,82786.22727261236,0,0,548
2570,3,4,82786.2372871293,0,0,549
2571,3,4,82786.24730164625,0,0,550
2572,3,4,82786.25731616317,0,0,551
2573,3,4,82786.26733068012,0,0,552
2574,3,4,82786.27734519706,0,0,553
2575,3,4,82786.287359714,0,0,552
2576,3,4,82786.29737423094,0,0,552
2577,3,4,82786.30738874788,0,0,551
2578,3,4,82786.31740326481,0,0,550
2579,3,4,82786.32741778175,0,0,547
2580,3,4,82786.3374322987,0,0,546
2581,3,4,82786.34744681563,0,0,544
2582,3,4,82786.35746133258,0,0,542
2583,3,4,82786.36747584952,0,0,542
2584,3,4,82786.37749036645,0,0,541
2585,3,4,82786.38750488339,0,0,541
2586,3,4,82786.39751940033,0,0,539
2587,3,4,82786.40753391727,0,0,540
2588,3,4,82786.41754843421,0,0,540
2589,3,4,82786.42756295115,0,0,540
2590,3,4,82786.43757746808,0,0,539
2591,3,4,82786.44759198502,0,0,540
2592,3,4,82786.45760650196,0,0,542
2593,3,4,82786.4676210189,0,0,543
2594,3,4,82786.47763553585,0,0,545
2595,3,4,82786.48765005279,0,0,548
2596,3,4,82786.49766456972,0,0,551
2597,3,4,82786.50767908666,0,0,553
2598,3,4,82786.5176936036,0,0,556
2599,3,4,82786.52770812054,0,0,558
2600,3,4,82786.53772263748,0,0,561
2601,3,4,82786.54773715441,0,0,563
2602,3,4,82786.55775167135,0,0,565
2603,3,4,82786.5677661883,0,0,567
2604,3,4,82786.57778070524,0,0,568
2605,3,4,82786.58779522218,0,0,568
2606,3,4,82786.59780973912,0,0,571
2607,3,4,82786.60782425605,0,0,572
2608,3,4,82786.61783877299,0,0,574
2609,3,4,82786.62785328993,0,0,575
2610,3,4,82786.63786780687,0,0,577
2611,3,4,82786.64788232381,0,0,580
2612,3,4,82786.65789684076,0,0,583
2613,3,4,82786.66791135768,0,0,585
2614,3,4,82786.67792587462,0,0,588
2615,3,4,82786.68794039157,0,0,591
2616,3,4,82786.69795490851,0,0,593
2617,3,4,82786.70796942545,0,0,595
2618,3,4,82786.71798394239,0,0,597
2619,3,4,82786.72799845932,0,0,599
2620,3,4,82786.73801297626,0,0,600
2621,3,4,82786.7480274932,0,0,602
2622,3,4,82786.75804201014,0,0,602
2623,3,4,82786.76805652709,0,0,603
2624,3,4,82786.77807104403,0,0,606
2625,3,4,82786.78808556095,0,0,608
2626,3,4,82786.7981000779,0,0,611
2627,3,4,82786.80811459484,0,0,614
2628,3,4,82786.81812911178,0,0,617
2629,3,4,82786.82814362872,0,0,619
2630,3,4,82786.83815814565,0,0,621
2631,3,4,82786.84817266259,0,0,624
2632,3,4,82786.85818717953,0,0,625
2633,3,4,82786.86820169647,0,0,626
2634,3,4,82786.87821621342,0,0,626
2635,3,4,82786.88823073036,0,0,627
2636,3,4,82786.89824524728,0,0,627
2637,3,4,82786.90825976423,0,0,628
2638,3,4,82786.91827428117,0,0,628
2639,3,4,82786.92828879811,0,0,628
2640,3,4,82786.93830331505,0,0,627
2641,3,4,82786.948317832,0,0,623
2642,3,4,82786.95833234892,0,0,620
2643,3,4,82786.96834686586,0,0,618
2644,3,4,82786.9783613828,0,0,615
2645,3,4,82786.98837589975,0,0,611
2646,3,4,82786.99839041669,0,0,608
2647,3,4,82787.00840493363,0,0,604
2648,3,4,82787.01841945056,0,0,600
2649,3,4,82787.0284339675,0,0,595
2650,3,4,82787.03844848444,0,0,592
2651,3,4,82787.04846300138,0,0,587
2652,3,4,82787.05847751832,0,0,582
2653,3,4,82787.06849203527,0,0,576
2654,3,4,82787.07850655219,0,0,570
2655,3,4,82787.08852106913,0,0,564
2656,3,4,82787.09853558608,0,0,558
2657,3,4,82787.10855010302,0,0,552
2658,3,4,82787.11856461996,0,0,546
2659,3,4,82787.12857913689,0,0,541
2660,3,4,82787.13859365383,0,0,537
2661,3,4,82787.14860817077,0,0,532
2662,3,4,82787.15862268771,0,0,526
2663,3,4,82787.16863720465,0,0,521
2664,3,4,82787.1786517216,0,0,515
2665,3,4,82787.18866623852,0,0,510
2666,3,4,82787.19868075546,0,0,504
2667,3,4,82787.2086952724,0,0,499
2668,3,4,82787.21870978935,0,0,494
2669,3,4,82787.22872430629,0,0,489
2670,3,4,82787.23873882323,0,0,484
2671,3,4,82787.24875334016,0,0,480
2672,3,4,82787.2587678571,0,0,476
2673,3,4,82787.26878237404,0,0,474
2674,3,4,82787.27879689098,0,0,472
2675,3,4,82787.28881140793,0,0,472
2676,3,4,82787.29882592487,0,0,471
2677,3,4,82787.3088404418,0,0,470
2678,3,4,82787.31885495874,0,0,469
2679,3,4,82787.32886947568,0,0,469
2680,3,4,82787.33888399262,0,0,469
2681,3,4,82787.34889850956,0,0,467
2682,3,4,82787.3589130265,0,0,468
2683,3,4,82787.36892754343,0,0,468
2684,3,4,82787.37894206037,0,0,468
2685,3,4,82787.38895657731,0,0,467
2686,3,4,82787.39897109426,0,0,468
2687,3,4,82787.4089856112,0,0,468
2688,3,4,82787.41900012812,0,0,470
2689,3,4,82787.42901464507,0,0,471
2690,3,4,82787.43902916201,0,0,472
2691,3,4,82787.44904367895,0,0,474
2692,3,4,82787.45905819589,0,0,476
2693,3,4,82787.46907271283,0,0,479
2694,3,4,82787.47908722976,0,0,482
2695,3,4,82787.4891017467,0,0,485
2696,3,4,82787.49911626364,0,0,488
2697,3,4,82787.50913078059,0,0,492
2698,3,4,82787.51914529753,0,0,495
2699,3,4,82787.52915981447,0,0,499
2700,3,4,82787.5391743314,0,0,503
2701,3,4,82787.54918884834,0,0,506
2702,3,4,82787.55920336528,0,0,509
2703,3,4,82787.56921788222,0,0,512
2704,3,4,82787.57923239916,0,0,515
2705,3,4,82787.5892469161,0,0,517
2706,3,4,82787.59926143303,0,0,520
2707,3,4,82787.60927594997,0,0,522
2708,3,4,82787.61929046692,0,0,523
2709,3,4,82787.62930498386,0,0,523
2710,3,4,82787.6393195008,0,0,522
2711,3,4,82787.64933401774,0,0,521
2712,3,4,82787.65934853467,0,0,519
2713,3,4,82787.66936305161,0,0,517
2714,3,4,82787.67937756855,0,0,515
2715,3,4,82787.6893920855,0,0,513
2716,3,4,82787.69940660243,0,0,512
2717,3,4,82787.70942111936,0,0,510
2718,3,4,82787.7194356363,0,0,508
2719,3,4,82787.72945015325,0,0,505
2720,3,4,82787.73946467019,0,0,502
2721,3,4,82787.74947918713,0,0,499
2722,3,4,82787.75949370407,0,0,495
2723,3,4,82787.769508221,0,0,492
2724,3,4,82787.77952273794,0,0,488
2725,3,4,82787.78953725488,0,0,487
2726,3,4,82787.79955177182,0,0,485
2727,3,4,82787.80956628876,0,0,483
2728,3,4,82787.8195808057,0,0,481
2729,3,4,82787.82959532263,0,0,479
2730,3,4,82787.83960983958,0,0,478
2731,3,4,82787.84962435652,0,0,477
2732,3,4,82787.85963887346,0,0,476
2733,3,4,82787.8696533904,0,0,477
2734,3,4,82787.87966790734,0,0,478
2735,3,4,82787.88968242427,0,0,478
2736,3,4,82787.89969694121,0,0,478
2737,3,4,82787.90971145815,0,0,478
2738,3,4,82787.9197259751,0,0,477
2739,3,4,82787.92974049204,0,0,476
2740,3,4,82787.93975500896,0,0,477
2741,3,4,82787.9497695259,0,0,477
2742,3,4,82787.95978404285,0,0,478
2743,3,4,82787.96979855979,0,0,477
2744,3,4,82787.97981307673,0,0,480
2745,3,4,82787.98982759367,0,0,481
2746,3,4,82787.9998421106,0,0,483
2747,3,4,82788.00985662754,0,0,485
2748,3,4,82788.01987114448,0,0,486
2749,3,4,82788.02988566142,0,0,486
2750,3,4,82788.03990017837,0,0,486
2751,3,4,82788.04991469531,0,0,486
2752,3,4,82788.05992921224,0,0,487
2753,3,4,82788.06994372918,0,0,487
2754,3,4,82788.07995824612,0,0,489
2755,3,4,82788.08997276306,0,0,491
2756,3,4,82788.09998728,0,0,493
2757,3,4,82788.11000179694,0,0,495
2758,3,4,82788.12001631387,0,0,497
2759,3,4,82788.13003083081,0,0,499
2760,3,4,82788.14004534775,0,0,499
2761,3,4,82788.1500598647,0,0,499
2762,3,4,82788.16007438164,0,0,499
2763,3,4,82788.17008889858,0,0,499
2764,3,4,82788.1801034155,0,0,498
2765,3,4,82788.19011793245,0,0,497
2766,3,4,82788.20013244939,0,0,496
2767,3,4,82788.21014696633,0,0,495
2768,3,4,82788.22016148327,0,0,494
2769,3,4,82788.2301760002,0,0,494
2770,3,4,82788.24019051714,0,0,493
2771,3,4,82788.25020503408,0,0,492
2772,3,4,82788.26021955103,0,0,491
2773,3,4,82788.27023406797,0,0,490
2774,3,4,82788.28024858491,0,0,488
2775,3,4,82788.29026310184,0,0,487
2776,3,4,82788.30027761878,0,0,484
2777,3,4,82788.31029213572,0,0,482
2778,3,4,82788.32030665266,0,0,480
2779,3,4,82788.3303211696,0,0,480
2780,3,4,82788.34033568655,0,0,479
2781,3,4,82788.35035020347,0,0,477
2782,3,4,82788.36036472041,0,0,474
2783,3,4,82788.37037923736,0,0,472
2784,3,4,82788.3803937543,0,0,470
2785,3,4,82788.39040827124,0,0,470
2786,3,4,82788.40042278818,0,0,468
2787,3,4,82788.41043730511,0,0,470
2788,3,4,82788.42045182205,0,0,469
2789,3,4,82788.43046633899,0,0,467
2790,3,4,82788.44048085593,0,0,465
2791,3,4,82788.45049537288,0,0,463
2792,3,4,82788.46050988982,0,0,460
2793,3,4,82788.47052440674,0,0,459
2794,3,4,82788.48053892369,0,0,457
2795,3,4,82788.49055344063,0,0,455
2796,3,4,82788.50056795757,0,0,453
2797,3,4,82788.51058247451,0,0,451
2798,3,4,82788.52059699144,0,0,449
2799,3,4,82788.53061150838,0,0,446
2800,3,4,82788.54062602532,0,0,443
2801,3,4,82788.55064054226,0,0,440
2802,3,4,82788.5606550592,0,0,438
2803,3,4,82788.57066957615,0,0,435
2804,3,4,82788.58068409307,0,0,432
2805,3,4,82788.59069861002,0,0,427
2806,3,4,82788.60071312696,0,0,423
2807,3,4,82788.6107276439,0,0,419
2808,3,4,82788.62074216084,0,0,415
2809,3,4,82788.63075667778,0,0,411
2810,3,4,82788.64077119471,0,0,408
2811,3,4,82788.65078571165,0,0,404
2812,3,4,82788.6608002286,0,0,401
2813,3,4,82788.67081474554,0,0,398
2814,3,4,82788.68082926248,0,0,393
2815,3,4,82788.69084377942,0,0,388
2816,3,4,82788.70085829635,0,0,382
2817,3,4,82788.71087281329,0,0,376
2818,3,4,82788.72088733023,0,0,371
2819,3,4,82788.73090184717,0,0,364
2820,3,4,82788.74091636411,0,0,357
2821,3,4,82788.75093088105,0,0,351
2822,3,4,82788.76094539798,0,0,344
2823,3,4,82788.77095991492,0,0,338
2824,3,4,82788.78097443187,0,0,332
2825,3,4,82788.79098894881,0,0,327
2826,3,4,82788.80100346575,0,0,322
2827,3,4,82788.81101798268,0,0,318
2828,3,4,82788.82103249962,0,0,312
2829,3,4,82788.83104701656,0,0,309
2830,3,4,82788.8410615335,0,0,304
2831,3,4,82788.85107605044,0,0,300
2832,3,4,82788.86109056738,0,0,295
2833,3,4,82788.87110508431,0,0,292
2834,3,4,82788.88111960125,0,0,287
2835,3,4,82788.8911341182,0,0,284
2836,3,4,82788.90114863514,0,0,280
2837,3,4,82788.91116315208,0,0,277
2838,3,4,82788.92117766902,0,0,276
2839,3,4,82788.93119218595,0,0,275
2840,3,4,82788.94120670289,0,0,275
2841,3,4,82788.95122121983,0,0,276
2842,3,4,82788.96123573677,0,0,277
2843,3,4,82788.97125025371,0,0,279
2844,3,4,82788.98126477066,0,0,281
2845,3,4,82788.99127928758,0,0,284
2846,3,4,82789.00129380453,0,0,287
2847,3,4,82789.01130832147,0,0,291
2848,3,4,82789.02132283841,0,0,295
2849,3,4,82789.03133735535,0,0,300
2850,3,4,82789.04135187229,0,0,304
2851,3,4,82789.05136638922,0,0,309
2852,3,4,82789.06138090616,0,0,315
2853,3,4,82789.0713954231,0,0,320
2854,3,4,82789.08140994004,0,0,324
2855,3,4,82789.09142445699,0,0,329
2856,3,4,82789.10143897391,0,0,335
2857,3,4,82789.11145349086,0,0,340
2858,3,4,82789.1214680078,0,0,345
2859,3,4,82789.13148252474,0,0,351
2860,3,4,82789.14149704168,0,0,358
2861,3,4,82789.15151155862,0,0,365
2862,3,4,82789.16152607555,0,0,371
2863,3,4,82789.17154059249,0,0,379
2864,3,4,82789.18155510943,0,0,386
2865,3,4,82789.19156962637,0,0,393
2866,3,4,82789.20158414332,0,0,400
2867,3,4,82789.21159866026,0,0,406
2868,3,4,82789.22161317719,0,0,410
2869,3,4,82789.23162769413,0,0,415
2870,3,4,82789.24164221107,0,0,417
2871,3,4,82789.25165672801,0,0,420
2872,3,4,82789.26167124495,0,0,422
2873,3,4,82789.2716857619,0,0,423
2874,3,4,82789.28170027882,0,0,423
2875,3,4,82789.29171479576,0,0,424
2876,3,4,82789.3017293127,0,0,425
2877,3,4,82789.31174382965,0,0,425
2878,3,4,82789.32175834659,0,0,426
2879,3,4,82789.33177286353,0,0,428
2880,3,4,82789.34178738046,0,0,427
2881,3,4,82789.3518018974,0,0,427
2882,3,4,82789.36181641434,0,0,427
2883,3,4,82789.37183093128,0,0,426
2884,3,4,82789.38184544822,0,0,425
2885,3,4,82789.39185996515,0,0,424
2886,3,4,82789.4018744821,0,0,423
2887,3,4,82789.41188899903,0,0,422
2888,3,4,82789.42190351598,0,0,422
2889,3,4,82789.43191803292,0,0,424
2890,3,4,82789.44193254986,0,0,425
2891,3,4,82789.45194706679,0,0,428
2892,3,4,82789.46196158373,0,0,431
2893,3,4,82789.47197610067,0,0,433
2894,3,4,82789.48199061761,0,0,436
2895,3,4,82789.49200513455,0,0,438
2896,3,4,82789.5020196515,0,0,439
2897,3,4,82789.51203416842,0,0,442
2898,3,4,82789.52204868537,0,0,445
2899,3,4,82789.5320632023,0,0,448
2900,3,4,82789.54207771925,0,0,452
2901,3,4,82789.55209223619,0,0,456
2902,3,4,82789.56210675313,0,0,461
2903,3,4,82789.57212127006,0,0,466
2904,3,4,82789.582135787,0,0,471
2905,3,4,82789.59215030394,0,0,477
2906,3,4,82789.60216482088,0,0,481
2907,3,4,82789.61217933783,0,0,486
2908,3,4,82789.62219385477,0,0,489
2909,3,4,82789.6322083717,0,0,492
2910,3,4,82789.64222288864,0,0,495
2911,3,4,82789.65223740558,0,0,498
2912,3,4,82789.66225192252,0,0,501
2913,3,4,82789.67226643946,0,0,504
2914,3,4,82789.68228095639,0,0,506
2915,3,4,82789.69229547333,0,0,509
2916,3,4,82789.70230999027,0,0,510
2917,3,4,82789.71232450721,0,0,514
2918,3,4,82789.72233902416,0,0,517
2919,3,4,82789.7323535411,0,0,519
2920,3,4,82789.74236805803,0,0,522
2921,3,4,82789.75238257497,0,0,525
2922,3,4,82789.76239709191,0,0,527
2923,3,4,82789.77241160885,0,0,529
2924,3,4,82789.78242612579,0,0,532
2925,3,4,82789.79244064273,0,0,534
2926,3,4,82789.80245515966,0,0,537
2927,3,4,82789.8124696766,0,0,540
2928,3,4,82789.82248419354,0,0,543
2929,3,4,82789.83249871049,0,0,546
2930,3,4,82789.84251322743,0,0,550
2931,3,4,82789.85252774437,0,0,552
2932,3,4,82789.8625422613,0,0,554
2933,3,4,82789.87255677824,0,0,559
2934,3,4,82789.88257129518,0,0,562
2935,3,4,82789.89258581212,0,0,565
2936,3,4,82789.90260032906,0,0,569
2937,3,4,82789.912614846,0,0,572
2938,3,4,82789.92262936293,0,0,575
2939,3,4,82789.93264387987,0,0,578
2940,3,4,82789.94265839682,0,0,580
2941,3,4,82789.95267291376,0,0,582
2942,3,4,82789.9626874307,0,0,586
2943,3,4,82789.97270194763,0,0,589
2944,3,4,82789.98271646457,0,0,592
2945,3,4,82789.99273098151,0,0,595
2946,3,4,82790.00274549845,0,0,597
2947,3,4,82790.0127600154,0,0,599
2948,3,4,82790.02277453234,0,0,600
2949,3,4,82790.03278904926,0,0,602
2950,3,4,82790.0428035662,0,0,604
2951,3,4,82790.05281808315,0,0,605
2952,3,4,82790.06283260009,0,0,606
2953,3,4,82790.07284711703,0,0,608
2954,3,4,82790.08286163397,0,0,610
2955,3,4,82790.0928761509,0,0,611
2956,3,4,82790.10289066784,0,0,612
2957,3,4,82790.11290518478,0,0,612
2958,3,4,82790.12291970172,0,0,611
2959,3,4,82790.13293421867,0,0,611
2960,3,4,82790.1429487356,0,0,611
2961,3,4,82790.15296325253,0,0,609
2962,3,4,82790.16297776948,0,0,609
2963,3,4,82790.17299228642,0,0,608
2964,3,4,82790.18300680336,0,0,606
2965,3,4,82790.1930213203,0,0,604
2966,3,4,82790.20303583724,0,0,603
2967,3,4,82790.21305035417,0,0,601
2968,3,4,82790.22306487111,0,0,600
2969,3,4,82790.23307938805,0,0,598
2970,3,4,82790.243093905,0,0,595
2971,3,4,82790.25310842194,0,0,593
2972,3,4,82790.26312293886,0,0,592
2973,3,4,82790.2731374558,0,0,589
2974,3,4,82790.28315197275,0,0,587
2975,3,4,82790.29316648969,0,0,587
2976,3,4,82790.30318100663,0,0,585
2977,3,4,82790.31319552357,0,0,583
2978,3,4,82790.3232100405,0,0,580
2979,3,4,82790.33322455744,0,0,580
2980,3,4,82790.34323907438,0,0,578
2981,3,4,82790.35325359133,0,0,577
2982,3,4,82790.36326810827,0,0,575
2983,3,4,82790.37328262521,0,0,573
2984,3,4,82790.38329714214,0,0,570
2985,3,4,82790.39331165908,0,0,566
2986,3,4,82790.40332617602,0,0,564
2987,3,4,82790.41334069296,0,0,562
2988,3,4,82790.4233552099,0,0,560
2989,3,4,82790.43336972684,0,0,558
2990,3,4,82790.44338424377,0,0,555
2991,3,4,82790.45339876071,0,0,551
2992,3,4,82790.46341327766,0,0,549
2993,3,4,82790.4734277946,0,0,546
2994,3,4,82790.48344231154,0,0,545
2995,3,4,82790.49345682848,0,0,544
2996,3,4,82790.50347134541,0,0,543
2997,3,4,82790.51348586235,0,0,543
2998,3,4,82790.52350037929,0,0,542
2999,3,4,82790.53351489623,0,0,540
3000,3,4,82790.54352941317,0,0,538
3001,3,4,82790.5535439301,0,0,536
3002,3,4,82790.56355844704,0,0,535
3003,3,4,82790.57357296399,0,0,532
3004,3,4,82790.58358748093,0,0,531
3005,3,4,82790.59360199787,0,0,529
3006,3,4,82790.60361651481,0,0,527
3007,3,4,82790.61363103174,0,0,527
3008,3,4,82790.62364554868,0,0,525
3009,3,4,82790.63366006562,0,0,522
3010,3,4,82790.64367458256,0,0,520
3011,3,4,82790.6536890995,0,0,517
3012,3,4,82790.66370361645,0,0,515
3013,3,4,82790.67371813337,0,0,512
3014,3,4,82790.68373265032,0,0,509
3015,3,4,82790.69374716726,0,0,506
3016,3,4,82790.7037616842,0,0,504
3017,3,4,82790.71377620114,0,0,502
3018,3,4,82790.72379071808,0,0,499
3019,3,4,82790.73380523501,0,0,496
3020,3,4,82790.74381975195,0,0,492
3021,3,4,82790.7538342689,0,0,488
3022,3,4,82790.76384878583,0,0,486
3023,3,4,82790.77386330278,0,0,483
3024,3,4,82790.78387781972,0,0,480
3025,3,4,82790.79389233665,0,0,477
3026,3,4,82790.80390685359,0,0,475
3027,3,4,82790.81392137053,0,0,472
3028,3,4,82790.82393588747,0,0,471
3029,3,4,82790.83395040441,0,0,470
3030,3,4,82790.84396492134,0,0,468
3031,3,4,82790.85397943828,0,0,468
3032,3,4,82790.86399395522,0,0,468
3033,3,4,82790.87400847216,0,0,468
3034,3,4,82790.8840229891,0,0,467
3035,3,4,82790.89403750605,0,0,467
3036,3,4,82790.90405202298,0,0,467
3037,3,4,82790.91406653992,0,0,464
3038,3,4,82790.92408105686,0,0,464
3039,3,4,82790.9340955738,0,0,462
3040,3,4,82790.94411009074,0,0,462
3041,3,4,82790.95412460768,0,0,461
3042,3,4,82790.96413912461,0,0,460
3043,3,4,82790.97415364155,0,0,458
3044,3,4,82790.9841681585,0,0,457
3045,3,4,82790.99418267544,0,0,455
3046,3,4,82791.00419719238,0,0,454
3047,3,4,82791.01421170932,0,0,453
3048,3,4,82791.02422622625,0,0,453
3049,3,4,82791.03424074319,0,0,452
3050,3,4,82791.04425526013,0,0,451
3051,3,4,82791.05426977707,0,0,452
3052,3,4,82791.06428429401,0,0,452
3053,3,4,82791.07429881096,0,0,451
3054,3,4,82791.08431332788,0,0,449
3055,3,4,82791.09432784482,0,0,450
3056,3,4,82791.10434236177,0,0,450
3057,3,4,82791.11435687871,0,0,450
3058,3,4,82791.12437139565,0,0,451
3059,3,4,82791.13438591258,0,0,451
3060,3,4,82791.14440042952,0,0,452
3061,3,4,82791.15441494646,0,0,453
3062,3,4,82791.1644294634,0,0,453
3063,3,4,82791.17444398034,0,0,453
3064,3,4,82791.18445849729,0,0,452
3065,3,4,82791.19447301421,0,0,452
3066,3,4,82791.20448753115,0,0,452
3067,3,4,82791.2145020481,0,0,451
3068,3,4,82791.22451656504,0,0,451
3069,3,4,82791.23453108198,0,0,451
3070,3,4,82791.24454559892,0,0,450
3071,3,4,82791.25456011585,0,0,450
3072,3,4,82791.26457463279,0,0,451
3073,3,4,82791.27458914973,0,0,451
3074,3,4,82791.28460366667,0,0,451
3075,3,4,82791.29461818362,0,0,452
3076,3,4,82791.30463270056,0,0,451
3077,3,4,82791.31464721748,0,0,452
3078,3,4,82791.32466173443,0,0,451
3079,3,4,82791.33467625137,0,0,451
3080,3,4,82791.34469076831,0,0,451
3081,3,4,82791.35470528525,0,0,451
3082,3,4,82791.3647198022,0,0,451
3083,3,4,82791.37473431912,0,0,452
3084,3,4,82791.38474883606,0,0,452
3085,3,4,82791.394763353,0,0,452
3086,3,4,82791.40477786995,0,0,453
3087,3,4,82791.41479238689,0,0,454
3088,3,4,82791.42480690381,0,0,456
3089,3,4,82791.43482142076,0,0,457
3090,3,4,82791.4448359377,0,0,456
3091,3,4,82791.45485045464,0,0,456
3092,3,4,82791.46486497158,0,0,457
3093,3,4,82791.47487948852,0,0,459
3094,3,4,82791.48489400545,0,0,461
3095,3,4,82791.49490852239,0,0,460
3096,3,4,82791.50492303933,0,0,462
3097,3,4,82791.51493755628,0,0,462
3098,3,4,82791.52495207322,0,0,462
3099,3,4,82791.53496659016,0,0,463
3100,3,4,82791.54498110709,0,0,465
3101,3,4,82791.55499562403,0,0,467
3102,3,4,82791.56501014097,0,0,468
3103,3,4,82791.57502465791,0,0,469
3104,3,4,82791.58503917485,0,0,471
3105,3,4,82791.5950536918,0,0,471
3106,3,4,82791.60506820872,0,0,469
3107,3,4,82791.61508272566,0,0,467
3108,3,4,82791.6250972426,0,0,465
3109,3,4,82791.63511175955,0,0,462
3110,3,4,82791.64512627649,0,0,458
3111,3,4,82791.65514079343,0,0,455
3112,3,4,82791.66515531036,0,0,452
3113,3,4,82791.6751698273,0,0,449
3114,3,4,82791.68518434424,0,0,444
3115,3,4,82791.69519886118,0,0,439
3116,3,4,82791.70521337813,0,0,435
3117,3,4,82791.71522789505,0,0,432
3118,3,4,82791.725242412,0,0,427
3119,3,4,82791.73525692894,0,0,424
3120,3,4,82791.74527144588,0,0,422
3121,3,4,82791.75528596282,0,0,419
3122,3,4,82791.76530047976,0,0,416
3123,3,4,82791.77531499669,0,0,416
3124,3,4,82791.78532951363,0,0,415
3125,3,4,82791.79534403057,0,0,415
3126,3,4,82791.80535854751,0,0,416
3127,3,4,82791.81537306446,0,0,417
3128,3,4,82791.8253875814,0,0,418
3129,3,4,82791.83540209832,0,0,419
3130,3,4,82791.84541661527,0,0,419
3131,3,4,82791.85543113221,0,0,418
3132,3,4,82791.86544564915,0,0,418
3133,3,4,82791.87546016609,0,0,416
3134,3,4,82791.88547468303,0,0,415
3135,3,4,82791.89548919996,0,0,414
3136,3,4,82791.9055037169,0,0,413
3137,3,4,82791.91551823384,0,0,412
3138,3,4,82791.92553275079,0,0,412
3139,3,4,82791.93554726773,0,0,411
3140,3,4,82791.94556178467,0,0,412
3141,3,4,82791.9555763016,0,0,411
3142,3,4,82791.96559081854,0,0,409
3143,3,4,82791.97560533548,0,0,408
3144,3,4,82791.98561985242,0,0,406
3145,3,4,82791.99563436936,0,0,405
3146,3,4,82792.00564888629,0,0,404
3147,3,4,82792.01566340323,0,0,402
3148,3,4,82792.02567792017,0,0,400
3149,3,4,82792.03569243712,0,0,397
3150,3,4,82792.04570695406,0,0,393
3151,3,4,82792.055721471,0,0,389
3152,3,4,82792.06573598793,0,0,384
3153,3,4,82792.07575050487,0,0,380
3154,3,4,82792.08576502181,0,0,374
3155,3,4,82792.09577953875,0,0,369
3156,3,4,82792.1057940557,0,0,361
3157,3,4,82792.11580857263,0,0,352
3158,3,4,82792.12582308956,0,0,341
3159,3,4,82792.1358376065,0,0,329
3160,3,4,82792.14585212345,0,0,317
3161,3,4,82792.15586664039,0,0,303
3162,3,4,82792.16588115733,0,0,289
3163,3,4,82792.17589567427,0,0,276
3164,3,4,82792.1859101912,0,0,263
3165,3,4,82792.19592470814,0,0,250
3166,3,4,82792.20593922508,0,0,237
3167,3,4,82792.21595374202,0,0,226
3168,3,4,82792.22596825896,0,0,214
3169,3,4,82792.2359827759,0,0,203
3170,3,4,82792.24599729283,0,0,192
3171,3,4,82792.25601180978,0,0,183
3172,3,4,82792.26602632672,0,0,173
3173,3,4,82792.27604084366,0,0,165
3174,3,4,82792.2860553606,0,0,158
3175,3,4,82792.29606987753,0,0,152
3176,3,4,82792.30608439447,0,0,148
3177,3,4,82792.31609891141,0,0,146
3178,3,4,82792.32611342835,0,0,144
3179,3,4,82792.3361279453,0,0,143
3180,3,4,82792.34614246224,0,0,142
3181,3,4,82792.35615697916,0,0,141
3182,3,4,82792.3661714961,0,0,141
3183,3,4,82792.37618601305,0,0,142
3184,3,4,82792.38620052999,0,0,143
3185,3,4,82792.39621504693,0,0,145
3186,3,4,82792.40622956387,0,0,147
3187,3,4,82792.4162440808,0,0,148
3188,3,4,82792.42625859774,0,0,151
3189,3,4,82792.43627311468,0,0,154
3190,3,4,82792.44628763162,0,0,156
3191,3,4,82792.45630214857,0,0,158
3192,3,4,82792.46631666551,0,0,163
3193,3,4,82792.47633118244,0,0,168
3194,3,4,82792.48634569938,0,0,173
3195,3,4,82792.49636021632,0,0,177
3196,3,4,82792.50637473326,0,0,181
3197,3,4,82792.5163892502,0,0,184
3198,3,4,82792.52640376714,0,0,187
3199,3,4,82792.53641828407,0,0,190
3200,3,4,82792.54643280101,0,0,193
3201,3,4,82792.55644731795,0,0,196
3202,3,4,82792.5664618349,0,0,199
3203,3,4,82792.57647635184,0,0,204
3204,3,4,82792.58649086877,0,0,207
3205,3,4,82792.5965053857,0,0,210
3206,3,4,82792.60651990265,0,0,213
3207,3,4,82792.61653441959,0,0,215
3208,3,4,82792.62654893653,0,0,217
3209,3,4,82792.63656345347,0,0,218
3210,3,4,82792.6465779704,0,0,220
3211,3,4,82792.65659248734,0,0,223
3212,3,4,82792.66660700428,0,0,227
3213,3,4,82792.67662152123,0,0,232
3214,3,4,82792.68663603817,0,0,238
3215,3,4,82792.69665055511,0,0,246
3216,3,4,82792.70666507204,0,0,252
3217,3,4,82792.71667958898,0,0,258
3218,3,4,82792.72669410592,0,0,263
3219,3,4,82792.73670862286,0,0,268
3220,3,4,82792.7467231398,0,0,272
3221,3,4,82792.75673765675,0,0,274
3222,3,4,82792.76675217367,0,0,277
3223,3,4,82792.77676669061,0,0,280
3224,3,4,82792.78678120756,0,0,282
3225,3,4,82792.7967957245,0,0,286
3226,3,4,82792.80681024144,0,0,287
3227,3,4,82792.81682475838,0,0,288
3228,3,4,82792.82683927531,0,0,286
3229,3,4,82792.83685379225,0,0,285
3230,3,4,82792.84686830919,0,0,282
3231,3,4,82792.85688282613,0,0,280
3232,3,4,82792.86689734308,0,0,280
3233,3,4,82792.87691186,0,0,280
3234,3,4,82792.88692637694,0,0,281
3235,3,4,82792.89694089389,0,0,281
3236,3,4,82792.90695541083,0,0,282
3237,3,4,82792.91696992777,0,0,280
3238,3,4,82792.92698444471,0,0,279
3239,3,4,82792.93699896164,0,0,279
3240,3,4,82792.94701347858,0,0,278
3241,3,4,82792.95702799552,0,0,275
3242,3,4,82792.96704251246,0,0,270
3243,3,4,82792.9770570294,0,0,262
3244,3,4,82792.98707154635,0,0,251
3245,3,4,82792.99708606327,0,0,237
3246,3,4,82793.00710058022,0,0,222
3247,3,4,82793.01711509716,0,0,209
3248,3,4,82793.0271296141,0,0,199
3249,3,4,82793.03714413104,0,0,194
3250,3,4,82793.04715864798,0,0,192
3251,3,4,82793.05717316491,0,0,198
3252,3,4,82793.06718768185,0,0,207
3253,3,4,82793.0772021988,0,0,219
3254,3,4,82793.08721671574,0,0,236
3255,3,4,82793.09723123268,0,0,258
3256,3,4,82793.10724574962,0,0,286
3257,3,4,82793.11726026655,0,0,316
3258,3,4,82793.12727478349,0,0,346
3259,3,4,82793.13728930043,0,0,374
3260,3,4,82793.14730381737,0,0,398
3261,3,4,82793.15731833431,0,0,419
3262,3,4,82793.16733285124,0,0,441
3263,3,4,82793.17734736818,0,0,461
3264,3,4,82793.18736188512,0,0,483
3265,3,4,82793.19737640207,0,0,505
3266,3,4,82793.20739091901,0,0,527
3267,3,4,82793.21740543595,0,0,549
3268,3,4,82793.22741995288,0,0,568
3269,3,4,82793.23743446982,0,0,587
3270,3,4,82793.24744898676,0,0,604
3271,3,4,82793.2574635037,0,0,620
3272,3,4,82793.26747802064,0,0,635
3273,3,4,82793.27749253759,0,0,648
3274,3,4,82793.28750705451,0,0,659
3275,3,4,82793.29752157145,0,0,668
3276,3,4,82793.3075360884,0,0,675
3277,3,4,82793.31755060534,0,0,681
3278,3,4,82793.32756512228,0,0,683
3279,3,4,82793.33757963922,0,0,681
3280,3,4,82793.34759415615,0,0,675
3281,3,4,82793.35760867309,0,0,665
3282,3,4,82793.36762319003,0,0,654
3283,3,4,82793.37763770697,0,0,644
3284,3,4,82793.38765222392,0,0,636
3285,3,4,82793.39766674086,0,0,628
3286,3,4,82793.40768125778,0,0,621
3287,3,4,82793.41769577473,0,0,614
3288,3,4,82793.42771029167,0,0,605
3289,3,4,82793.43772480861,0,0,596
3290,3,4,82793.44773932555,0,0,588
3291,3,4,82793.45775384248,0,0,582
3292,3,4,82793.46776835942,0,0,576
3293,3,4,82793.47778287636,0,0,575
3294,3,4,82793.4877973933,0,0,578
3295,3,4,82793.49781191025,0,0,585
3296,3,4,82793.50782642719,0,0,598
3297,3,4,82793.51784094411,0,0,611
3298,3,4,82793.52785546106,0,0,624
3299,3,4,82793.537869978,0,0,637
3300,3,4,82793.54788449494,0,0,649
3301,3,4,82793.55789901188,0,0,661
3302,3,4,82793.56791352882,0,0,671
3303,3,4,82793.57792804575,0,0,681
3304,3,4,82793.58794256269,0,0,691
3305,3,4,82793.59795707963,0,0,700
3306,3,4,82793.60797159658,0,0,708
3307,3,4,82793.61798611352,0,0,716
3308,3,4,82793.62800063046,0,0,724
3309,3,4,82793.63801514739,0,0,731
3310,3,4,82793.64802966433,0,0,737
3311,3,4,82793.65804418127,0,0,743
3312,3,4,82793.66805869821,0,0,745
3313,3,4,82793.67807321515,0,0,748
3314,3,4,82793.6880877321,0,0,747
3315,3,4,82793.69810224902,0,0,745
3316,3,4,82793.70811676596,0,0,742
3317,3,4,82793.7181312829,0,0,739
3318,3,4,82793.72814579985,0,0,735
3319,3,4,82793.73816031679,0,0,730
3320,3,4,82793.74817483372,0,0,726
3321,3,4,82793.75818935066,0,0,719
3322,3,4,82793.7682038676,0,0,712
3323,3,4,82793.77821838454,0,0,704
3324,3,4,82793.78823290148,0,0,696
3325,3,4,82793.79824741842,0,0,689
3326,3,4,82793.80826193535,0,0,684
3327,3,4,82793.8182764523,0,0,680
3328,3,4,82793.82829096924,0,0,676
3329,3,4,82793.83830548618,0,0,671
3330,3,4,82793.84832000312,0,0,665
3331,3,4,82793.85833452006,0,0,656
3332,3,4,82793.86834903699,0,0,647
3333,3,4,82793.87836355393,0,0,636
3334,3,4,82793.88837807087,0,0,626
3335,3,4,82793.89839258781,0,0,617
3336,3,4,82793.90840710475,0,0,609
3337,3,4,82793.9184216217,0,0,599
3338,3,4,82793.92843613862,0,0,592
3339,3,4,82793.93845065557,0,0,581
3340,3,4,82793.9484651725,0,0,572
3341,3,4,82793.95847968945,0,0,562
3342,3,4,82793.96849420639,0,0,550
3343,3,4,82793.97850872333,0,0,539
3344,3,4,82793.98852324026,0,0,526
3345,3,4,82793.9985377572,0,0,515
3346,3,4,82794.00855227414,0,0,504
3347,3,4,82794.01856679108,0,0,493
3348,3,4,82794.02858130803,0,0,483
3349,3,4,82794.03859582495,0,0,474
3350,3,4,82794.0486103419,0,0,466
3351,3,4,82794.05862485884,0,0,459
3352,3,4,82794.06863937578,0,0,453
3353,3,4,82794.07865389272,0,0,447
3354,3,4,82794.08866840966,0,0,442
3355,3,4,82794.09868292659,0,0,439
3356,3,4,82794.10869744353,0,0,436
3357,3,4,82794.11871196047,0,0,431
3358,3,4,82794.12872647741,0,0,428
3359,3,4,82794.13874099436,0,0,425
3360,3,4,82794.1487555113,0,0,423
3361,3,4,82794.15877002823,0,0,421
3362,3,4,82794.16878454517,0,0,419
3363,3,4,82794.17879906211,0,0,414
3364,3,4,82794.18881357905,0,0,409
3365,3,4,82794.19882809599,0,0,403
3366,3,4,82794.20884261293,0,0,399
3367,3,4,82794.21885712986,0,0,395
3368,3,4,82794.2288716468,0,0,392
3369,3,4,82794.23888616374,0,0,391
3370,3,4,82794.24890068069,0,0,391
3371,3,4,82794.25891519763,0,0,391
3372,3,4,82794.26892971457,0,0,394
3373,3,4,82794.2789442315,0,0,396
3374,3,4,82794.28895874844,0,0,398
3375,3,4,82794.29897326538,0,0,398
3376,3,4,82794.30898778232,0,0,397
3377,3,4,82794.31900229926,0,0,397
3378,3,4,82794.32901681619,0,0,398
3379,3,4,82794.33903133313,0,0,399
3380,3,4,82794.34904585007,0,0,400
3381,3,4,82794.35906036702,0,0,400
3382,3,4,82794.36907488396,0,0,400
3383,3,4,82794.3790894009,0,0,402
3384,3,4,82794.38910391783,0,0,403
3385,3,4,82794.39911843477,0,0,403
3386,3,4,82794.40913295171,0,0,401
3387,3,4,82794.41914746865,0,0,401
3388,3,4,82794.4291619856,0,0,400
3389,3,4,82794.43917650254,0,0,399
3390,3,4,82794.44919101946,0,0,398
3391,3,4,82794.4592055364,0,0,399
3392,3,4,82794.46922005335,0,0,399
3393,3,4,82794.47923457029,0,0,398
3394,3,4,82794.48924908723,0,0,397
3395,3,4,82794.49926360417,0,0,396
3396,3,4,82794.5092781211,0,0,399
3397,3,4,82794.51929263804,0,0,399
3398,3,4,82794.52930715498,0,0,401
3399,3,4,82794.53932167192,0,0,403
3400,3,4,82794.54933618887,0,0,405
3401,3,4,82794.55935070581,0,0,408
3402,3,4,82794.56936522273,0,0,410
3403,3,4,82794.57937973968,0,0,413
3404,3,4,82794.58939425662,0,0,415
3405,3,4,82794.59940877356,0,0,418
3406,3,4,82794.6094232905,0,0,422
3407,3,4,82794.61943780743,0,0,424
3408,3,4,82794.62945232437,0,0,428
3409,3,4,82794.63946684131,0,0,430
3410,3,4,82794.64948135825,0,0,435
3411,3,4,82794.6594958752,0,0,440
3412,3,4,82794.66951039214,0,0,443
3413,3,4,82794.67952490906,0,0,447
3414,3,4,82794.689539426,0,0,449
3415,3,4,82794.69955394295,0,0,452
3416,3,4,82794.70956845989,0,0,453
3417,3,4,82794.71958297683,0,0,454
3418,3,4,82794.72959749377,0,0,457
3419,3,4,82794.7396120107,0,0,458
3420,3,4,82794.74962652764,0,0,461
3421,3,4,82794.75964104458,0,0,463
3422,3,4,82794.76965556153,0,0,463
3423,3,4,82794.77967007847,0,0,465
3424,3,4,82794.78968459541,0,0,466
3425,3,4,82794.79969911234,0,0,466
3426,3,4,82794.80971362928,0,0,466
3427,3,4,82794.81972814622,0,0,466
3428,3,4,82794.82974266316,0,0,465
3429,3,4,82794.8397571801,0,0,463
3430,3,4,82794.84977169705,0,0,462
3431,3,4,82794.85978621397,0,0,461
3432,3,4,82794.86980073091,0,0,462
3433,3,4,82794.87981524786,0,0,463
3434,3,4,82794.8898297648,0,0,466
3435,3,4,82794.89984428174,0,0,471
3436,3,4,82794.90985879867,0,0,474
3437,3,4,82794.91987331561,0,0,478
3438,3,4,82794.92988783255,0,0,481
3439,3,4,82794.93990234949,0,0,483
3440,3,4,82794.94991686643,0,0,484
3441,3,4,82794.95993138338,0,0,486
3442,3,4,82794.9699459003,0,0,486
3443,3,4,82794.97996041724,0,0,488
3444,3,4,82794.98997493419,0,0,492
3445,3,4,82794.99998945113,0,0,495
3446,3,4,82795.01000396807,0,0,497
3447,3,4,82795.02001848501,0,0,499
3448,3,4,82795.03003300194,0,0,501
3449,3,4,82795.04004751888,0,0,504
3450,3,4,82795.05006203582,0,0,507
3451,3,4,82795.06007655276,0,0,511
3452,3,4,82795.0700910697,0,0,515
3453,3,4,82795.08010558665,0,0,519
3454,3,4,82795.09012010357,0,0,525
3455,3,4,82795.10013462052,0,0,528
3456,3,4,82795.11014913746,0,0,531
3457,3,4,82795.1201636544,0,0,534
3458,3,4,82795.13017817134,0,0,537
3459,3,4,82795.14019268828,0,0,539
3460,3,4,82795.15020720521,0,0,539
3461,3,4,82795.16022172215,0,0,539
3462,3,4,82795.1702362391,0,0,536
3463,3,4,82795.18025075604,0,0,534
3464,3,4,82795.19026527298,0,0,528
3465,3,4,82795.2002797899,0,0,522
3466,3,4,82795.21029430685,0,0,514
3467,3,4,82795.22030882379,0,0,508
3468,3,4,82795.23032334073,0,0,500
3469,3,4,82795.24033785767,0,0,495
3470,3,4,82795.25035237461,0,0,490
3471,3,4,82795.26036689154,0,0,489
3472,3,4,82795.27038140848,0,0,487
3473,3,4,82795.28039592542,0,0,487
3474,3,4,82795.29041044237,0,0,487
