,session,participant,time,ECG,EDA,Respiration
0,1,4,1507.9710551259525,496,1020,595
1,1,4,1507.9810550420327,494,1020,594
2,1,4,1507.9910549581127,493,1020,593
3,1,4,1508.001054874193,492,1020,591
4,1,4,1508.011054790273,492,1020,590
5,1,4,1508.0210547063532,489,1020,589
6,1,4,1508.0310546224332,488,1020,586
7,1,4,1508.0410545385134,495,1020,584
8,1,4,1508.0510544545934,485,1020,583
9,1,4,1508.0610543706737,483,1020,581
10,1,4,1508.0710542867537,483,1020,580
11,1,4,1508.081054202834,485,1020,578
12,1,4,1508.091054118914,488,1020,575
13,1,4,1508.1010540349941,495,1020,572
14,1,4,1508.1110539510742,509,1020,571
15,1,4,1508.1210538671544,513,1020,567
16,1,4,1508.1310537832346,527,1020,565
17,1,4,1508.1410536993146,538,1020,564
18,1,4,1508.1510536153949,539,1020,560
19,1,4,1508.1610535314749,537,1020,558
20,1,4,1508.171053447555,536,1020,556
21,1,4,1508.181053363635,534,1020,553
22,1,4,1508.1910532797153,529,1020,552
23,1,4,1508.2010531957953,527,1020,552
24,1,4,1508.2110531118756,524,1020,550
25,1,4,1508.2210530279556,523,1020,548
26,1,4,1508.2310529440358,523,1020,545
27,1,4,1508.2410528601158,520,1020,545
28,1,4,1508.251052776196,517,1020,541
29,1,4,1508.261052692276,515,1020,537
30,1,4,1508.2710526083563,515,1020,533
31,1,4,1508.2810525244365,517,1020,525
32,1,4,1508.2910524405165,510,1020,518
33,1,4,1508.3010523565968,514,1020,504
34,1,4,1508.3110522726768,521,1020,488
35,1,4,1508.321052188757,510,1020,471
36,1,4,1508.331052104837,513,1020,450
37,1,4,1508.3410520209172,510,1020,427
38,1,4,1508.3510519369972,511,1020,405
39,1,4,1508.3610518530775,511,1020,379
40,1,4,1508.3710517691575,518,1020,355
41,1,4,1508.3810516852377,513,1020,334
42,1,4,1508.3910516013177,515,1020,312
43,1,4,1508.401051517398,510,1020,293
44,1,4,1508.411051433478,512,1020,278
45,1,4,1508.4210513495582,513,1020,261
46,1,4,1508.4310512656384,506,1020,246
47,1,4,1508.4410511817184,509,1020,232
48,1,4,1508.4510510977987,507,1020,217
49,1,4,1508.4610510138787,508,1020,205
50,1,4,1508.471050929959,510,1020,193
51,1,4,1508.481050846039,510,1020,182
52,1,4,1508.4910507621191,510,1020,173
53,1,4,1508.5010506781991,507,1020,163
54,1,4,1508.5110505942794,501,1020,152
55,1,4,1508.5210505103594,502,1020,146
56,1,4,1508.5310504264396,497,1020,138
57,1,4,1508.5410503425196,502,1020,132
58,1,4,1508.5510502585998,502,1020,125
59,1,4,1508.5610501746798,500,1020,121
60,1,4,1508.57105009076,492,1020,117
61,1,4,1508.5810500068403,507,1020,113
62,1,4,1508.5910499229203,520,1020,109
63,1,4,1508.6010498390006,520,1020,104
64,1,4,1508.6110497550806,517,1020,100
65,1,4,1508.6210496711608,517,1020,97
66,1,4,1508.6310495872408,512,1020,94
67,1,4,1508.641049503321,510,1020,91
68,1,4,1508.651049419401,505,1020,88
69,1,4,1508.6610493354813,487,1020,88
70,1,4,1508.6710492515613,456,1020,87
71,1,4,1508.6810491676415,449,1020,84
72,1,4,1508.6910490837215,566,1020,81
73,1,4,1508.7010489998017,601,1020,81
74,1,4,1508.711048915882,570,1020,79
75,1,4,1508.721048831962,534,1020,76
76,1,4,1508.7310487480422,504,1020,71
77,1,4,1508.7410486641222,498,1020,66
78,1,4,1508.7510485802025,496,1020,63
79,1,4,1508.7610484962825,487,1020,59
80,1,4,1508.7710484123627,497,1020,60
81,1,4,1508.7810483284427,486,1020,60
82,1,4,1508.791048244523,495,1020,58
83,1,4,1508.801048160603,492,1020,57
84,1,4,1508.8110480766832,487,1020,58
85,1,4,1508.8210479927632,492,1020,60
86,1,4,1508.8310479088434,488,1020,61
87,1,4,1508.8410478249234,491,1020,62
88,1,4,1508.8510477410036,479,1020,66
89,1,4,1508.8610476570839,487,1020,71
90,1,4,1508.8710475731639,481,1020,74
91,1,4,1508.881047489244,483,1020,77
92,1,4,1508.8910474053241,483,1020,81
93,1,4,1508.9010473214043,486,1020,85
94,1,4,1508.9110472374844,495,1020,91
95,1,4,1508.9210471535646,502,1020,94
96,1,4,1508.9310470696446,514,1020,97
97,1,4,1508.9410469857248,521,1020,102
98,1,4,1508.9510469018048,527,1020,109
99,1,4,1508.961046817885,531,1020,112
100,1,4,1508.971046733965,535,1020,117
101,1,4,1508.9810466500453,537,1020,123
102,1,4,1508.9910465661253,538,1020,129
103,1,4,1509.0010464822055,537,1020,136
104,1,4,1509.0110463982858,533,1020,139
105,1,4,1509.0210463143658,533,1020,143
106,1,4,1509.031046230446,520,1020,145
107,1,4,1509.041046146526,526,1020,147
108,1,4,1509.0510460626062,525,1020,151
109,1,4,1509.0610459786863,518,1020,153
110,1,4,1509.0710458947665,518,1020,154
111,1,4,1509.0810458108465,517,1020,156
112,1,4,1509.0910457269267,518,1020,157
113,1,4,1509.1010456430067,515,1020,158
114,1,4,1509.111045559087,514,1020,161
115,1,4,1509.121045475167,519,1020,163
116,1,4,1509.1310453912472,516,1020,163
117,1,4,1509.1410453073272,512,1020,165
118,1,4,1509.1510452234074,512,1020,166
119,1,4,1509.1610451394877,511,1020,167
120,1,4,1509.1710450555677,515,1020,167
121,1,4,1509.181044971648,514,1020,167
122,1,4,1509.191044887728,512,1020,172
123,1,4,1509.2010448038081,514,1020,174
124,1,4,1509.2110447198882,514,1020,176
125,1,4,1509.2210446359684,513,1020,177
126,1,4,1509.2310445520484,513,1020,176
127,1,4,1509.2410444681286,511,1020,174
128,1,4,1509.2510443842086,512,1020,172
129,1,4,1509.2610443002889,509,1020,167
130,1,4,1509.2710442163689,512,1020,162
131,1,4,1509.281044132449,510,1020,156
132,1,4,1509.291044048529,511,1020,151
133,1,4,1509.3010439646093,509,1020,143
134,1,4,1509.3110438806896,507,1020,135
135,1,4,1509.3210437967696,502,1020,125
136,1,4,1509.3310437128498,498,1020,114
137,1,4,1509.3410436289298,494,1020,107
138,1,4,1509.35104354501,503,1020,100
139,1,4,1509.36104346109,501,1020,95
140,1,4,1509.3710433771703,500,1020,93
141,1,4,1509.3810432932503,503,1020,92
142,1,4,1509.3910432093305,510,1020,89
143,1,4,1509.4010431254105,523,1020,88
144,1,4,1509.4110430414908,523,1020,84
145,1,4,1509.4210429575708,515,1020,81
146,1,4,1509.431042873651,520,1020,75
147,1,4,1509.441042789731,517,1020,70
148,1,4,1509.4510427058112,496,1020,67
149,1,4,1509.4610426218915,499,1020,63
150,1,4,1509.4710425379715,466,1020,61
151,1,4,1509.4810424540517,420,1020,61
152,1,4,1509.4910423701317,516,1020,62
153,1,4,1509.501042286212,615,1020,65
154,1,4,1509.511042202292,587,1020,71
155,1,4,1509.5210421183722,544,1020,79
156,1,4,1509.5310420344522,512,1020,90
157,1,4,1509.5410419505324,514,1020,103
158,1,4,1509.5510418666124,504,1020,118
159,1,4,1509.5610417826927,492,1020,137
160,1,4,1509.5710416987727,485,1020,157
161,1,4,1509.581041614853,493,1020,177
162,1,4,1509.591041530933,492,1020,199
163,1,4,1509.6010414470131,490,1020,218
164,1,4,1509.6110413630934,490,1020,237
165,1,4,1509.6210412791734,490,1020,258
166,1,4,1509.6310411952536,491,1020,276
167,1,4,1509.6410411113336,492,1020,293
168,1,4,1509.6510410274138,481,1020,309
169,1,4,1509.6610409434938,476,1020,325
170,1,4,1509.671040859574,473,1020,337
171,1,4,1509.681040775654,475,1020,349
172,1,4,1509.6910406917343,480,1020,360
173,1,4,1509.7010406078143,484,1020,370
174,1,4,1509.7110405238946,489,1020,378
175,1,4,1509.7210404399746,496,1020,389
176,1,4,1509.7310403560548,503,1020,399
177,1,4,1509.7410402721348,515,1020,408
178,1,4,1509.751040188215,524,1020,419
179,1,4,1509.7610401042953,536,1020,427
180,1,4,1509.7710400203753,541,1020,435
181,1,4,1509.7810399364555,540,1020,442
182,1,4,1509.7910398525355,539,1020,451
183,1,4,1509.8010397686157,536,1020,454
184,1,4,1509.8110396846957,534,1020,461
185,1,4,1509.821039600776,534,1020,466
186,1,4,1509.831039516856,531,1020,472
187,1,4,1509.8410394329362,527,1020,478
188,1,4,1509.8510393490162,521,1020,483
189,1,4,1509.8610392650965,521,1020,488
190,1,4,1509.8710391811765,521,1020,493
191,1,4,1509.8810390972567,521,1020,496
192,1,4,1509.891039013337,519,1020,502
193,1,4,1509.901038929417,518,1020,503
194,1,4,1509.9110388454972,518,1020,506
195,1,4,1509.9210387615772,517,1020,509
196,1,4,1509.9310386776574,516,1020,511
197,1,4,1509.9410385937374,515,1020,513
198,1,4,1509.9510385098176,512,1020,516
199,1,4,1509.9610384258976,514,1020,515
200,1,4,1509.9710383419779,522,1020,513
201,1,4,1509.9810382580579,521,1020,510
202,1,4,1509.991038174138,513,1020,508
203,1,4,1510.0010380902181,511,1020,505
204,1,4,1510.0110380062983,511,1020,502
205,1,4,1510.0210379223784,511,1020,497
206,1,4,1510.0310378384586,511,1020,491
207,1,4,1510.0410377545388,511,1020,483
208,1,4,1510.0510376706188,511,1020,472
209,1,4,1510.061037586699,512,1020,460
210,1,4,1510.071037502779,509,1020,446
211,1,4,1510.0810374188593,511,1020,430
212,1,4,1510.0910373349393,509,1020,414
213,1,4,1510.1010372510195,503,1020,399
214,1,4,1510.1110371670995,498,1020,383
215,1,4,1510.1210370831798,494,1020,369
216,1,4,1510.1310369992598,490,1020,356
217,1,4,1510.14103691534,503,1020,344
218,1,4,1510.15103683142,503,1020,333
219,1,4,1510.1610367475002,506,1020,324
220,1,4,1510.1710366635803,507,1020,316
221,1,4,1510.1810365796605,517,1020,306
222,1,4,1510.1910364957407,521,1020,299
223,1,4,1510.2010364118207,521,1020,292
224,1,4,1510.211036327901,519,1020,284
225,1,4,1510.221036243981,519,1020,276
226,1,4,1510.2310361600612,512,1020,266
227,1,4,1510.2410360761412,500,1020,261
228,1,4,1510.2510359922214,489,1020,251
229,1,4,1510.2610359083014,447,1020,244
230,1,4,1510.2710358243817,450,1020,234
231,1,4,1510.2810357404617,591,1020,227
232,1,4,1510.291035656542,626,1020,220
233,1,4,1510.301035572622,573,1020,214
234,1,4,1510.3110354887021,530,1020,209
235,1,4,1510.3210354047822,500,1020,204
236,1,4,1510.3310353208624,494,1020,199
237,1,4,1510.3410352369426,491,1020,196
238,1,4,1510.3510351530226,487,1020,191
239,1,4,1510.3610350691029,489,1020,188
240,1,4,1510.3710349851829,486,1020,184
241,1,4,1510.381034901263,485,1020,182
242,1,4,1510.391034817343,486,1020,179
243,1,4,1510.4010347334233,487,1020,178
244,1,4,1510.4110346495033,484,1020,175
245,1,4,1510.4210345655836,487,1020,173
246,1,4,1510.4310344816636,486,1020,172
247,1,4,1510.4410343977438,483,1020,173
248,1,4,1510.4510343138238,479,1020,173
249,1,4,1510.461034229904,474,1020,173
250,1,4,1510.471034145984,473,1020,169
251,1,4,1510.4810340620643,472,1020,167
252,1,4,1510.4910339781445,476,1020,171
253,1,4,1510.5010338942245,489,1020,176
254,1,4,1510.5110338103048,500,1020,182
255,1,4,1510.5210337263848,512,1020,189
256,1,4,1510.531033642465,521,1020,198
257,1,4,1510.541033558545,531,1020,208
258,1,4,1510.5510334746252,539,1020,216
259,1,4,1510.5610333907052,543,1020,223
260,1,4,1510.5710333067855,540,1020,226
261,1,4,1510.5810332228655,540,1020,233
262,1,4,1510.5910331389457,537,1020,242
263,1,4,1510.6010330550257,534,1020,250
264,1,4,1510.611032971106,533,1020,258
265,1,4,1510.621032887186,526,1020,266
266,1,4,1510.6310328032662,521,1020,276
267,1,4,1510.6410327193464,518,1020,287
268,1,4,1510.6510326354264,518,1020,299
269,1,4,1510.6610325515067,517,1020,314
270,1,4,1510.6710324675867,518,1020,329
271,1,4,1510.681032383667,518,1020,345
272,1,4,1510.691032299747,513,1020,361
273,1,4,1510.7010322158271,511,1020,379
274,1,4,1510.7110321319071,517,1020,393
275,1,4,1510.7210320479874,516,1020,409
276,1,4,1510.7310319640674,521,1020,424
277,1,4,1510.7410318801476,516,1020,438
278,1,4,1510.7510317962276,515,1020,455
279,1,4,1510.7610317123078,519,1020,466
280,1,4,1510.7710316283878,516,1020,480
281,1,4,1510.781031544468,511,1020,494
282,1,4,1510.7910314605483,512,1020,508
283,1,4,1510.8010313766283,511,1020,524
284,1,4,1510.8110312927085,514,1020,540
285,1,4,1510.8210312087886,509,1020,557
286,1,4,1510.8310311248688,510,1020,575
287,1,4,1510.8410310409488,508,1020,592
288,1,4,1510.851030957029,506,1020,610
289,1,4,1510.861030873109,508,1020,627
290,1,4,1510.8710307891893,501,1020,642
291,1,4,1510.8810307052693,499,1020,656
292,1,4,1510.8910306213495,497,1020,668
293,1,4,1510.9010305374295,499,1020,678
294,1,4,1510.9110304535097,495,1020,687
295,1,4,1510.9210303695897,501,1020,696
296,1,4,1510.93103028567,500,1020,703
297,1,4,1510.9410302017502,507,1020,710
298,1,4,1510.9510301178302,518,1020,716
299,1,4,1510.9610300339104,521,1020,722
300,1,4,1510.9710299499905,519,1020,729
301,1,4,1510.9810298660707,523,1020,738
302,1,4,1510.9910297821507,526,1020,747
303,1,4,1511.001029698231,515,1020,756
304,1,4,1511.011029614311,507,1020,766
305,1,4,1511.0210295303912,488,1020,777
306,1,4,1511.0310294464712,441,1020,787
307,1,4,1511.0410293625514,442,1020,797
308,1,4,1511.0510292786314,583,1020,807
309,1,4,1511.0610291947116,615,1020,818
310,1,4,1511.0710291107916,569,1020,828
311,1,4,1511.0810290268719,532,1020,838
312,1,4,1511.091028942952,503,1020,846
313,1,4,1511.101028859032,494,1020,851
314,1,4,1511.1110287751123,489,1020,857
315,1,4,1511.1210286911924,489,1020,863
316,1,4,1511.1310286072726,489,1020,869
317,1,4,1511.1410285233526,487,1020,875
318,1,4,1511.1510284394328,487,1020,879
319,1,4,1511.1610283555128,487,1020,882
320,1,4,1511.171028271593,486,1020,886
321,1,4,1511.181028187673,487,1020,888
322,1,4,1511.1910281037533,486,1020,890
323,1,4,1511.2010280198333,485,1020,891
324,1,4,1511.2110279359135,482,1020,892
325,1,4,1511.2210278519938,483,1020,893
326,1,4,1511.2310277680738,474,1020,894
327,1,4,1511.241027684154,476,1020,895
328,1,4,1511.251027600234,478,1020,896
329,1,4,1511.2610275163142,484,1020,897
330,1,4,1511.2710274323942,492,1020,898
331,1,4,1511.2810273484745,500,1020,899
332,1,4,1511.2910272645545,511,1020,899
333,1,4,1511.3010271806347,522,1020,898
334,1,4,1511.3110270967147,533,1020,898
335,1,4,1511.321027012795,539,1020,897
336,1,4,1511.331026928875,538,1020,895
337,1,4,1511.3410268449552,543,1020,892
338,1,4,1511.3510267610352,542,1020,890
339,1,4,1511.3610266771154,542,1020,887
340,1,4,1511.3710265931957,533,1020,884
341,1,4,1511.3810265092757,530,1020,879
342,1,4,1511.391026425356,524,1020,875
343,1,4,1511.401026341436,524,1020,870
344,1,4,1511.4110262575161,520,1020,865
345,1,4,1511.4210261735961,520,1020,861
346,1,4,1511.4310260896764,518,1020,856
347,1,4,1511.4410260057564,518,1020,852
348,1,4,1511.4510259218366,515,1020,847
349,1,4,1511.4610258379166,516,1020,843
350,1,4,1511.4710257539969,516,1020,839
351,1,4,1511.4810256700769,516,1020,835
352,1,4,1511.491025586157,515,1020,831
353,1,4,1511.501025502237,510,1020,827
354,1,4,1511.5110254183173,515,1020,823
355,1,4,1511.5210253343976,519,1020,819
356,1,4,1511.5310252504776,516,1020,815
357,1,4,1511.5410251665578,511,1020,811
358,1,4,1511.5510250826378,507,1020,807
359,1,4,1511.561024998718,503,1020,802
360,1,4,1511.571024914798,503,1020,797
361,1,4,1511.5810248308783,502,1020,794
362,1,4,1511.5910247469583,497,1020,790
363,1,4,1511.6010246630385,509,1020,785
364,1,4,1511.6110245791185,502,1020,780
365,1,4,1511.6210244951988,514,1020,775
366,1,4,1511.6310244112788,525,1020,769
367,1,4,1511.641024327359,522,1020,763
368,1,4,1511.651024243439,525,1020,758
369,1,4,1511.6610241595192,521,1020,753
370,1,4,1511.6710240755995,520,1020,747
371,1,4,1511.6810239916795,541,1020,740
372,1,4,1511.6910239077597,529,1020,733
373,1,4,1511.7010238238397,491,1020,723
374,1,4,1511.71102373992,467,1020,713
375,1,4,1511.721023656,395,1020,701
376,1,4,1511.7310235720802,516,1020,689
377,1,4,1511.7410234881602,626,1020,679
378,1,4,1511.7510234042404,592,1020,670
379,1,4,1511.7610233203204,553,1020,663
380,1,4,1511.7710232364007,517,1020,654
381,1,4,1511.7810231524807,495,1020,647
382,1,4,1511.791023068561,489,1020,642
383,1,4,1511.801022984641,490,1020,640
384,1,4,1511.8110229007211,492,1020,638
385,1,4,1511.8210228168014,494,1020,640
386,1,4,1511.8310227328814,487,1020,646
387,1,4,1511.8410226489616,488,1020,654
388,1,4,1511.8510225650416,487,1020,664
389,1,4,1511.8610224811218,480,1020,675
390,1,4,1511.8710223972018,487,1020,686
391,1,4,1511.881022313282,479,1020,699
392,1,4,1511.891022229362,492,1020,711
393,1,4,1511.9010221454423,472,1020,721
394,1,4,1511.9110220615223,479,1020,732
395,1,4,1511.9210219776025,491,1020,742
396,1,4,1511.9310218936826,484,1020,751
397,1,4,1511.9410218097628,483,1020,759
398,1,4,1511.9510217258428,499,1020,766
399,1,4,1511.961021641923,493,1020,772
400,1,4,1511.9710215580033,524,1020,777
401,1,4,1511.9810214740833,544,1020,781
402,1,4,1511.9910213901635,549,1020,784
403,1,4,1512.0010213062435,550,1020,786
404,1,4,1512.0110212223237,557,1020,788
405,1,4,1512.0210211384037,553,1020,789
406,1,4,1512.031021054484,562,1020,791
407,1,4,1512.041020970564,555,1020,792
408,1,4,1512.0510208866442,545,1020,795
409,1,4,1512.0610208027242,539,1020,798
410,1,4,1512.0710207188044,536,1020,800
411,1,4,1512.0810206348845,535,1020,803
412,1,4,1512.0910205509647,527,1020,804
413,1,4,1512.1010204670447,524,1020,806
414,1,4,1512.111020383125,535,1020,808
415,1,4,1512.1210202992052,513,1020,809
416,1,4,1512.1310202152852,519,1020,808
417,1,4,1512.1410201313654,540,1020,807
418,1,4,1512.1510200474454,531,1020,806
419,1,4,1512.1610199635256,523,1020,803
420,1,4,1512.1710198796056,518,1020,799
421,1,4,1512.1810197956859,519,1020,795
422,1,4,1512.1910197117659,510,1020,791
423,1,4,1512.201019627846,512,1020,787
424,1,4,1512.211019543926,487,1020,783
425,1,4,1512.2210194600063,487,1020,781
426,1,4,1512.2310193760864,475,1020,780
427,1,4,1512.2410192921666,506,1020,779
428,1,4,1512.2510192082466,511,1020,777
429,1,4,1512.2610191243268,499,1020,775
430,1,4,1512.271019040407,512,1020,773
431,1,4,1512.281018956487,518,1020,771
432,1,4,1512.2910188725673,521,1020,770
433,1,4,1512.3010187886473,510,1020,769
434,1,4,1512.3110187047275,513,1020,770
435,1,4,1512.3210186208075,511,1020,770
436,1,4,1512.3310185368878,507,1020,771
437,1,4,1512.3410184529678,505,1020,772
438,1,4,1512.351018369048,489,1020,775
439,1,4,1512.361018285128,444,1020,779
440,1,4,1512.3710182012082,405,1020,784
441,1,4,1512.3810181172882,553,1020,791
442,1,4,1512.3910180333685,614,1020,797
443,1,4,1512.4010179494485,580,1020,803
444,1,4,1512.4110178655287,535,1020,806
445,1,4,1512.421017781609,500,1020,807
446,1,4,1512.431017697689,492,1020,806
447,1,4,1512.4410176137692,476,1020,805
448,1,4,1512.4510175298492,493,1020,802
449,1,4,1512.4610174459294,474,1020,801
450,1,4,1512.4710173620094,461,1020,800
451,1,4,1512.4810172780897,481,1020,799
452,1,4,1512.4910171941697,471,1020,797
453,1,4,1512.50101711025,464,1020,796
454,1,4,1512.51101702633,472,1020,795
455,1,4,1512.5210169424101,457,1020,793
456,1,4,1512.5310168584901,445,1020,792
457,1,4,1512.5410167745704,460,1020,790
458,1,4,1512.5510166906506,456,1020,787
459,1,4,1512.5610166067306,449,1020,784
460,1,4,1512.5710165228109,457,1020,780
461,1,4,1512.5810164388909,450,1020,775
462,1,4,1512.591016354971,464,1020,769
463,1,4,1512.601016271051,480,1020,764
464,1,4,1512.6110161871313,493,1020,761
465,1,4,1512.6210161032113,491,1020,759
466,1,4,1512.6310160192916,521,1020,759
467,1,4,1512.6410159353716,530,1020,761
468,1,4,1512.6510158514518,532,1020,762
469,1,4,1512.6610157675318,524,1020,764
470,1,4,1512.671015683612,535,1020,764
471,1,4,1512.681015599692,536,1020,765
472,1,4,1512.6910155157723,540,1020,765
473,1,4,1512.7010154318525,520,1020,764
474,1,4,1512.7110153479325,525,1020,762
475,1,4,1512.7210152640127,529,1020,759
476,1,4,1512.7310151800928,507,1020,755
477,1,4,1512.741015096173,527,1020,751
478,1,4,1512.751015012253,530,1020,746
479,1,4,1512.7610149283332,508,1020,741
480,1,4,1512.7710148444132,520,1020,736
481,1,4,1512.7810147604935,534,1020,733
482,1,4,1512.7910146765735,531,1020,729
483,1,4,1512.8010145926537,515,1020,727
484,1,4,1512.8110145087337,522,1020,726
485,1,4,1512.821014424814,507,1020,724
486,1,4,1512.831014340894,510,1020,724
487,1,4,1512.8410142569742,514,1020,724
488,1,4,1512.8510141730544,506,1020,724
489,1,4,1512.8610140891344,511,1020,724
490,1,4,1512.8710140052146,508,1020,724
491,1,4,1512.8810139212947,524,1020,723
492,1,4,1512.8910138373749,531,1020,722
493,1,4,1512.901013753455,536,1020,720
494,1,4,1512.9110136695351,524,1020,718
495,1,4,1512.9210135856151,535,1020,716
496,1,4,1512.9310135016954,525,1020,713
497,1,4,1512.9410134177754,525,1020,709
498,1,4,1512.9510133338556,511,1020,706
499,1,4,1512.9610132499356,506,1020,702
500,1,4,1512.9710131660158,477,1020,699
501,1,4,1512.9810130820958,420,1020,697
502,1,4,1512.991012998176,515,1020,696
503,1,4,1513.0010129142563,609,1020,696
504,1,4,1513.0110128303363,603,1020,698
505,1,4,1513.0210127464165,561,1020,702
506,1,4,1513.0310126624966,522,1020,704
507,1,4,1513.0410125785768,509,1020,707
508,1,4,1513.0510124946568,502,1020,711
509,1,4,1513.061012410737,492,1020,715
510,1,4,1513.071012326817,494,1020,720
511,1,4,1513.0810122428973,494,1020,727
512,1,4,1513.0910121589773,492,1020,733
513,1,4,1513.1010120750575,491,1020,738
514,1,4,1513.1110119911375,484,1020,741
515,1,4,1513.1210119072177,489,1020,744
516,1,4,1513.1310118232977,495,1020,745
517,1,4,1513.141011739378,489,1020,745
518,1,4,1513.1510116554582,481,1020,745
519,1,4,1513.1610115715382,517,1020,744
520,1,4,1513.1710114876184,438,1020,742
521,1,4,1513.1810114036984,491,1020,740
522,1,4,1513.1910113197787,475,1020,738
523,1,4,1513.2010112358587,486,1020,735
524,1,4,1513.211011151939,481,1020,734
525,1,4,1513.221011068019,496,1020,733
526,1,4,1513.2310109840992,514,1020,733
527,1,4,1513.2410109001792,524,1020,732
528,1,4,1513.2510108162594,531,1020,732
529,1,4,1513.2610107323394,540,1020,731
530,1,4,1513.2710106484196,542,1020,728
531,1,4,1513.2810105644996,549,1020,727
532,1,4,1513.2910104805799,543,1020,726
533,1,4,1513.30101039666,539,1020,726
534,1,4,1513.31101031274,514,1020,725
535,1,4,1513.3210102288203,531,1020,724
536,1,4,1513.3310101449003,537,1020,723
537,1,4,1513.3410100609806,529,1020,722
538,1,4,1513.3510099770606,519,1020,722
539,1,4,1513.3610098931408,521,1020,723
540,1,4,1513.3710098092208,525,1020,722
541,1,4,1513.381009725301,518,1020,722
542,1,4,1513.391009641381,515,1020,722
543,1,4,1513.4010095574613,513,1020,721
544,1,4,1513.4110094735413,510,1020,721
545,1,4,1513.4210093896215,510,1020,721
546,1,4,1513.4310093057015,510,1020,723
547,1,4,1513.4410092217818,509,1020,723
548,1,4,1513.451009137862,509,1020,725
549,1,4,1513.461009053942,516,1020,727
550,1,4,1513.4710089700222,523,1020,727
551,1,4,1513.4810088861022,525,1020,728
552,1,4,1513.4910088021825,519,1020,728
553,1,4,1513.5010087182625,502,1020,728
554,1,4,1513.5110086343427,529,1020,726
555,1,4,1513.5210085504227,522,1020,724
556,1,4,1513.531008466503,505,1020,721
557,1,4,1513.541008382583,529,1020,717
558,1,4,1513.5510082986632,464,1020,712
559,1,4,1513.5610082147432,408,1020,707
560,1,4,1513.5710081308234,530,1020,700
561,1,4,1513.5810080469034,611,1020,694
562,1,4,1513.5910079629837,582,1020,688
563,1,4,1513.601007879064,542,1020,682
564,1,4,1513.611007795144,515,1020,674
565,1,4,1513.6210077112241,501,1020,666
566,1,4,1513.6310076273041,489,1020,658
567,1,4,1513.6410075433844,483,1020,652
568,1,4,1513.6510074594644,498,1020,648
569,1,4,1513.6610073755446,489,1020,643
570,1,4,1513.6710072916246,491,1020,639
571,1,4,1513.6810072077049,496,1020,635
572,1,4,1513.6910071237849,491,1020,632
573,1,4,1513.701007039865,490,1020,630
574,1,4,1513.711006955945,479,1020,627
575,1,4,1513.7210068720253,482,1020,624
576,1,4,1513.7310067881056,487,1020,621
577,1,4,1513.7410067041856,475,1020,619
578,1,4,1513.7510066202658,480,1020,616
579,1,4,1513.7610065363458,478,1020,614
580,1,4,1513.771006452426,477,1020,612
581,1,4,1513.781006368506,484,1020,609
582,1,4,1513.7910062845863,495,1020,608
583,1,4,1513.8010062006663,497,1020,606
584,1,4,1513.8110061167465,513,1020,603
585,1,4,1513.8210060328265,524,1020,601
586,1,4,1513.8310059489067,531,1020,600
587,1,4,1513.8410058649868,535,1020,598
588,1,4,1513.851005781067,536,1020,593
589,1,4,1513.861005697147,544,1020,591
590,1,4,1513.8710056132272,540,1020,590
591,1,4,1513.8810055293075,537,1020,591
592,1,4,1513.8910054453875,531,1020,591
593,1,4,1513.9010053614677,526,1020,591
594,1,4,1513.9110052775477,523,1020,592
595,1,4,1513.921005193628,521,1020,592
596,1,4,1513.931005109708,516,1020,592
597,1,4,1513.9410050257882,521,1020,593
598,1,4,1513.9510049418682,516,1020,592
599,1,4,1513.9610048579484,510,1020,592
600,1,4,1513.9710047740284,504,1020,590
601,1,4,1513.9810046901086,504,1020,590
602,1,4,1513.9910046061887,506,1020,588
603,1,4,1514.0010045222689,505,1020,585
604,1,4,1514.011004438349,500,1020,586
605,1,4,1514.0210043544291,507,1020,582
606,1,4,1514.0310042705094,507,1020,580
607,1,4,1514.0410041865894,520,1020,579
608,1,4,1514.0510041026696,523,1020,578
609,1,4,1514.0610040187496,530,1020,577
610,1,4,1514.0710039348298,525,1020,576
611,1,4,1514.0810038509098,517,1020,575
612,1,4,1514.09100376699,517,1020,574
613,1,4,1514.10100368307,517,1020,572
614,1,4,1514.1110035991503,513,1020,572
615,1,4,1514.1210035152303,495,1020,570
616,1,4,1514.1310034313105,435,1020,569
617,1,4,1514.1410033473906,433,1020,568
618,1,4,1514.1510032634708,579,1020,567
619,1,4,1514.1610031795508,614,1020,568
620,1,4,1514.171003095631,577,1020,568
621,1,4,1514.1810030117113,540,1020,568
622,1,4,1514.1910029277913,508,1020,567
623,1,4,1514.2010028438715,499,1020,564
624,1,4,1514.2110027599515,492,1020,563
625,1,4,1514.2210026760317,495,1020,562
626,1,4,1514.2310025921117,494,1020,562
627,1,4,1514.241002508192,494,1020,562
628,1,4,1514.251002424272,493,1020,561
629,1,4,1514.2610023403522,493,1020,560
630,1,4,1514.2710022564322,489,1020,560
631,1,4,1514.2810021725124,491,1020,560
632,1,4,1514.2910020885924,486,1020,563
633,1,4,1514.3010020046727,490,1020,563
634,1,4,1514.3110019207527,480,1020,561
635,1,4,1514.321001836833,484,1020,561
636,1,4,1514.3310017529132,478,1020,560
637,1,4,1514.3410016689932,480,1020,559
638,1,4,1514.3510015850734,482,1020,560
639,1,4,1514.3610015011534,483,1020,557
640,1,4,1514.3710014172336,489,1020,556
641,1,4,1514.3810013333136,507,1020,555
642,1,4,1514.3910012493939,519,1020,554
643,1,4,1514.4010011654739,527,1020,554
644,1,4,1514.411001081554,536,1020,553
645,1,4,1514.421000997634,540,1020,553
646,1,4,1514.4310009137143,540,1020,554
647,1,4,1514.4410008297943,543,1020,552
648,1,4,1514.4510007458746,534,1020,553
649,1,4,1514.4610006619546,535,1020,553
650,1,4,1514.4710005780348,532,1020,557
651,1,4,1514.481000494115,526,1020,557
652,1,4,1514.491000410195,525,1020,557
653,1,4,1514.5010003262753,524,1020,558
654,1,4,1514.5110002423553,518,1020,560
655,1,4,1514.5210001584355,519,1020,558
656,1,4,1514.5310000745155,513,1020,558
657,1,4,1514.5409999905958,512,1020,559
658,1,4,1514.5509999066758,506,1020,558
659,1,4,1514.560999822756,508,1020,560
660,1,4,1514.570999738836,505,1020,560
661,1,4,1514.5809996549162,505,1020,560
662,1,4,1514.5909995709962,507,1020,561
663,1,4,1514.6009994870765,506,1020,561
664,1,4,1514.6109994031565,517,1020,561
665,1,4,1514.6209993192367,525,1020,561
666,1,4,1514.630999235317,528,1020,563
667,1,4,1514.640999151397,523,1020,563
668,1,4,1514.6509990674772,525,1020,565
669,1,4,1514.6609989835572,524,1020,566
670,1,4,1514.6709988996374,518,1020,568
671,1,4,1514.6809988157174,511,1020,570
672,1,4,1514.6909987317977,500,1020,570
673,1,4,1514.7009986478777,455,1020,571
674,1,4,1514.710998563958,412,1020,574
675,1,4,1514.720998480038,541,1020,573
676,1,4,1514.7309983961181,617,1020,574
677,1,4,1514.7409983121981,586,1020,575
678,1,4,1514.7509982282784,545,1020,576
679,1,4,1514.7609981443584,509,1020,576
680,1,4,1514.7709980604386,500,1020,574
681,1,4,1514.7809979765188,495,1020,572
682,1,4,1514.7909978925989,495,1020,573
683,1,4,1514.800997808679,492,1020,575
684,1,4,1514.810997724759,491,1020,575
685,1,4,1514.8209976408393,489,1020,575
686,1,4,1514.8309975569193,492,1020,574
687,1,4,1514.8409974729996,489,1020,573
688,1,4,1514.8509973890796,487,1020,573
689,1,4,1514.8609973051598,489,1020,572
690,1,4,1514.8709972212398,487,1020,573
691,1,4,1514.88099713732,480,1020,572
692,1,4,1514.8909970534,479,1020,572
693,1,4,1514.9009969694803,479,1020,571
694,1,4,1514.9109968855605,478,1020,571
695,1,4,1514.9209968016405,480,1020,570
696,1,4,1514.9309967177207,484,1020,569
697,1,4,1514.9409966338008,488,1020,569
698,1,4,1514.950996549881,503,1020,568
699,1,4,1514.960996465961,514,1020,569
700,1,4,1514.9709963820412,525,1020,570
701,1,4,1514.9809962981212,532,1020,571
702,1,4,1514.9909962142015,538,1020,571
703,1,4,1515.0009961302815,542,1020,572
704,1,4,1515.0109960463617,540,1020,572
705,1,4,1515.0209959624417,539,1020,574
706,1,4,1515.030995878522,535,1020,575
707,1,4,1515.040995794602,528,1020,577
708,1,4,1515.0509957106822,526,1020,578
709,1,4,1515.0609956267624,526,1020,579
710,1,4,1515.0709955428424,524,1020,581
711,1,4,1515.0809954589226,520,1020,581
712,1,4,1515.0909953750026,517,1020,582
713,1,4,1515.1009952910829,518,1020,583
714,1,4,1515.110995207163,517,1020,585
715,1,4,1515.1209951232431,510,1020,585
716,1,4,1515.1309950393231,507,1020,588
717,1,4,1515.1409949554034,503,1020,588
718,1,4,1515.1509948714834,505,1020,590
719,1,4,1515.1609947875636,507,1020,591
720,1,4,1515.1709947036436,502,1020,592
721,1,4,1515.1809946197238,505,1020,592
722,1,4,1515.1909945358038,508,1020,591
723,1,4,1515.200994451884,518,1020,593
724,1,4,1515.2109943679643,525,1020,592
725,1,4,1515.2209942840443,524,1020,592
726,1,4,1515.2309942001245,523,1020,592
727,1,4,1515.2409941162045,520,1020,591
728,1,4,1515.2509940322848,519,1020,591
729,1,4,1515.2609939483648,515,1020,592
730,1,4,1515.270993864445,508,1020,591
731,1,4,1515.280993780525,496,1020,592
732,1,4,1515.2909936966053,451,1020,592
733,1,4,1515.3009936126853,414,1020,592
734,1,4,1515.3109935287655,553,1020,592
735,1,4,1515.3209934448455,617,1020,593
736,1,4,1515.3309933609257,580,1020,593
737,1,4,1515.3409932770057,542,1020,593
738,1,4,1515.350993193086,505,1020,592
739,1,4,1515.3609931091662,500,1020,591
740,1,4,1515.3709930252462,498,1020,590
741,1,4,1515.3809929413264,490,1020,590
742,1,4,1515.3909928574064,488,1020,591
743,1,4,1515.4009927734867,490,1020,591
744,1,4,1515.4109926895667,486,1020,593
745,1,4,1515.420992605647,483,1020,595
746,1,4,1515.430992521727,486,1020,598
747,1,4,1515.4409924378072,495,1020,602
748,1,4,1515.4509923538872,486,1020,606
749,1,4,1515.4609922699674,466,1020,610
750,1,4,1515.4709921860474,475,1020,614
751,1,4,1515.4809921021276,472,1020,619
752,1,4,1515.4909920182076,493,1020,624
753,1,4,1515.5009919342879,489,1020,629
754,1,4,1515.510991850368,487,1020,632
755,1,4,1515.520991766448,492,1020,635
756,1,4,1515.5309916825283,502,1020,636
757,1,4,1515.5409915986083,510,1020,637
758,1,4,1515.5509915146886,524,1020,638
759,1,4,1515.5609914307686,536,1020,641
760,1,4,1515.5709913468488,546,1020,645
761,1,4,1515.5809912629288,551,1020,647
762,1,4,1515.590991179009,554,1020,651
763,1,4,1515.600991095089,538,1020,653
764,1,4,1515.6109910111693,510,1020,656
765,1,4,1515.6209909272493,527,1020,660
766,1,4,1515.6309908433295,536,1020,662
767,1,4,1515.6409907594095,522,1020,666
768,1,4,1515.6509906754898,513,1020,670
769,1,4,1515.66099059157,514,1020,673
770,1,4,1515.67099050765,514,1020,679
771,1,4,1515.6809904237302,504,1020,687
772,1,4,1515.6909903398102,517,1020,697
773,1,4,1515.7009902558905,522,1020,709
774,1,4,1515.7109901719705,512,1020,723
775,1,4,1515.7209900880507,521,1020,738
776,1,4,1515.7309900041307,503,1020,754
777,1,4,1515.740989920211,522,1020,771
778,1,4,1515.750989836291,505,1020,787
779,1,4,1515.7609897523712,504,1020,801
780,1,4,1515.7709896684512,514,1020,815
781,1,4,1515.7809895845314,520,1020,828
782,1,4,1515.7909895006114,516,1020,839
783,1,4,1515.8009894166917,500,1020,849
784,1,4,1515.810989332772,495,1020,857
785,1,4,1515.820989248852,516,1020,864
786,1,4,1515.8309891649321,542,1020,870
787,1,4,1515.8409890810121,529,1020,874
788,1,4,1515.8509889970924,551,1020,877
789,1,4,1515.8609889131724,531,1020,877
790,1,4,1515.8709888292526,547,1020,877
791,1,4,1515.8809887453326,550,1020,874
792,1,4,1515.8909886614128,543,1020,870
793,1,4,1515.9009885774929,551,1020,867
794,1,4,1515.910988493573,521,1020,863
795,1,4,1515.920988409653,502,1020,860
796,1,4,1515.9309883257333,486,1020,858
797,1,4,1515.9409882418133,578,1020,856
798,1,4,1515.9509881578936,648,1020,855
799,1,4,1515.9609880739738,608,1020,853
800,1,4,1515.9709879900538,537,1020,852
801,1,4,1515.980987906134,549,1020,849
802,1,4,1515.990987822214,530,1020,846
803,1,4,1516.0009877382943,511,1020,845
804,1,4,1516.0109876543743,512,1020,845
805,1,4,1516.0209875704545,510,1020,845
806,1,4,1516.0309874865345,512,1020,846
807,1,4,1516.0409874026147,509,1020,846
808,1,4,1516.0509873186948,508,1020,845
809,1,4,1516.060987234775,488,1020,842
810,1,4,1516.070987150855,507,1020,837
811,1,4,1516.0809870669352,498,1020,831
812,1,4,1516.0909869830152,495,1020,823
813,1,4,1516.1009868990955,484,1020,814
814,1,4,1516.1109868151757,485,1020,804
815,1,4,1516.1209867312557,486,1020,792
816,1,4,1516.130986647336,479,1020,780
817,1,4,1516.140986563416,493,1020,767
818,1,4,1516.1509864794962,491,1020,753
819,1,4,1516.1609863955762,493,1020,739
820,1,4,1516.1709863116564,490,1020,724
821,1,4,1516.1809862277364,508,1020,711
822,1,4,1516.1909861438166,517,1020,697
823,1,4,1516.2009860598966,515,1020,683
824,1,4,1516.2109859759769,520,1020,669
825,1,4,1516.220985892057,521,1020,655
826,1,4,1516.2309858081371,511,1020,642
827,1,4,1516.2409857242174,513,1020,629
828,1,4,1516.2509856402974,505,1020,615
829,1,4,1516.2609855563776,496,1020,601
830,1,4,1516.2709854724576,509,1020,587
831,1,4,1516.2809853885378,495,1020,572
832,1,4,1516.2909853046178,497,1020,558
833,1,4,1516.300985220698,487,1020,542
834,1,4,1516.310985136778,495,1020,527
835,1,4,1516.3209850528583,480,1020,513
836,1,4,1516.3309849689383,481,1020,498
837,1,4,1516.3409848850185,484,1020,484
838,1,4,1516.3509848010985,486,1020,471
839,1,4,1516.3609847171788,470,1020,458
840,1,4,1516.3709846332588,479,1020,444
841,1,4,1516.380984549339,476,1020,432
842,1,4,1516.3909844654193,466,1020,423
843,1,4,1516.4009843814993,461,1020,412
844,1,4,1516.4109842975795,460,1020,404
845,1,4,1516.4209842136595,456,1020,396
846,1,4,1516.4309841297397,464,1020,387
847,1,4,1516.4409840458197,472,1020,377
848,1,4,1516.4509839619,465,1020,370
849,1,4,1516.46098387798,476,1020,363
850,1,4,1516.4709837940602,477,1020,357
851,1,4,1516.4809837101402,482,1020,355
852,1,4,1516.4909836262204,499,1020,350
853,1,4,1516.5009835423004,500,1020,343
854,1,4,1516.5109834583807,511,1020,339
855,1,4,1516.5209833744607,504,1020,334
856,1,4,1516.530983290541,501,1020,328
857,1,4,1516.5409832066211,499,1020,322
858,1,4,1516.5509831227012,483,1020,318
859,1,4,1516.5609830387814,451,1020,312
860,1,4,1516.5709829548614,458,1020,307
861,1,4,1516.5809828709416,565,1020,307
862,1,4,1516.5909827870216,589,1020,313
863,1,4,1516.6009827031019,568,1020,319
864,1,4,1516.6109826191819,529,1020,327
865,1,4,1516.620982535262,513,1020,333
866,1,4,1516.630982451342,510,1020,339
867,1,4,1516.6409823674223,499,1020,344
868,1,4,1516.6509822835023,504,1020,350
869,1,4,1516.6609821995826,507,1020,355
870,1,4,1516.6709821156626,500,1020,359
871,1,4,1516.6809820317428,505,1020,358
872,1,4,1516.690981947823,507,1020,359
873,1,4,1516.700981863903,504,1020,359
874,1,4,1516.7109817799833,510,1020,359
875,1,4,1516.7209816960633,492,1020,360
876,1,4,1516.7309816121435,497,1020,360
877,1,4,1516.7409815282235,496,1020,361
878,1,4,1516.7509814443038,493,1020,363
879,1,4,1516.7609813603838,493,1020,367
880,1,4,1516.770981276464,487,1020,370
881,1,4,1516.780981192544,506,1020,372
882,1,4,1516.7909811086242,500,1020,374
883,1,4,1516.8009810247042,503,1020,374
884,1,4,1516.8109809407845,516,1020,375
885,1,4,1516.8209808568645,521,1020,376
886,1,4,1516.8309807729447,531,1020,377
887,1,4,1516.840980689025,537,1020,377
888,1,4,1516.850980605105,542,1020,379
889,1,4,1516.8609805211852,537,1020,378
890,1,4,1516.8709804372652,539,1020,379
891,1,4,1516.8809803533454,533,1020,380
892,1,4,1516.8909802694254,532,1020,381
893,1,4,1516.9009801855057,533,1020,382
894,1,4,1516.9109801015857,531,1020,385
895,1,4,1516.920980017666,526,1020,389
896,1,4,1516.930979933746,529,1020,392
897,1,4,1516.9409798498261,518,1020,394
898,1,4,1516.9509797659061,515,1020,399
899,1,4,1516.9609796819864,527,1020,404
900,1,4,1516.9709795980664,521,1020,409
901,1,4,1516.9809795141466,523,1020,414
902,1,4,1516.9909794302268,521,1020,419
903,1,4,1517.0009793463068,518,1020,424
904,1,4,1517.010979262387,512,1020,429
905,1,4,1517.020979178467,520,1020,436
906,1,4,1517.0309790945473,512,1020,444
907,1,4,1517.0409790106273,518,1020,451
908,1,4,1517.0509789267076,511,1020,455
909,1,4,1517.0609788427876,512,1020,463
910,1,4,1517.0709787588678,503,1020,471
911,1,4,1517.0809786749478,500,1020,479
912,1,4,1517.090978591028,490,1020,486
913,1,4,1517.100978507108,491,1020,490
914,1,4,1517.1109784231883,519,1020,496
915,1,4,1517.1209783392683,509,1020,502
916,1,4,1517.1309782553485,527,1020,507
917,1,4,1517.1409781714287,530,1020,512
918,1,4,1517.1509780875087,514,1020,517
919,1,4,1517.160978003589,532,1020,522
920,1,4,1517.170977919669,515,1020,528
921,1,4,1517.1809778357492,511,1020,533
922,1,4,1517.1909777518292,513,1020,540
923,1,4,1517.2009776679095,505,1020,548
924,1,4,1517.2109775839895,510,1020,556
925,1,4,1517.2209775000697,458,1020,566
926,1,4,1517.2309774161497,514,1020,576
927,1,4,1517.24097733223,607,1020,587
928,1,4,1517.25097724831,601,1020,600
929,1,4,1517.2609771643902,565,1020,614
930,1,4,1517.2709770804702,537,1020,626
931,1,4,1517.2809769965504,513,1020,639
932,1,4,1517.2909769126306,503,1020,652
933,1,4,1517.3009768287106,543,1020,666
934,1,4,1517.3109767447909,541,1020,681
935,1,4,1517.3209766608709,523,1020,696
936,1,4,1517.3309765769511,528,1020,710
937,1,4,1517.3409764930311,515,1020,723
938,1,4,1517.3509764091114,513,1020,736
939,1,4,1517.3609763251914,504,1020,749
940,1,4,1517.3709762412716,520,1020,762
941,1,4,1517.3809761573516,511,1020,775
942,1,4,1517.3909760734318,507,1020,788
943,1,4,1517.4009759895118,515,1020,800
944,1,4,1517.410975905592,497,1020,811
945,1,4,1517.420975821672,510,1020,822
946,1,4,1517.4309757377523,513,1020,832
947,1,4,1517.4409756538325,502,1020,842
948,1,4,1517.4509755699125,506,1020,851
949,1,4,1517.4609754859928,524,1020,859
950,1,4,1517.4709754020728,522,1020,867
951,1,4,1517.480975318153,532,1020,873
952,1,4,1517.490975234233,535,1020,879
953,1,4,1517.5009751503133,546,1020,884
954,1,4,1517.5109750663933,542,1020,889
955,1,4,1517.5209749824735,547,1020,894
956,1,4,1517.5309748985535,545,1020,898
957,1,4,1517.5409748146337,541,1020,903
958,1,4,1517.5509747307137,539,1020,908
959,1,4,1517.560974646794,535,1020,911
960,1,4,1517.5709745628742,537,1020,914
961,1,4,1517.5809744789542,522,1020,916
962,1,4,1517.5909743950344,520,1020,917
963,1,4,1517.6009743111144,512,1020,918
964,1,4,1517.6109742271947,536,1020,918
965,1,4,1517.6209741432747,530,1020,918
966,1,4,1517.630974059355,513,1020,919
967,1,4,1517.640973975435,524,1020,919
968,1,4,1517.6509738915152,518,1020,919
969,1,4,1517.6609738075952,521,1020,918
970,1,4,1517.6709737236754,512,1020,918
971,1,4,1517.6809736397554,515,1020,917
972,1,4,1517.6909735558356,513,1020,916
973,1,4,1517.7009734719156,515,1020,915
974,1,4,1517.7109733879959,518,1020,914
975,1,4,1517.720973304076,515,1020,913
976,1,4,1517.730973220156,506,1020,912
977,1,4,1517.7409731362363,510,1020,912
978,1,4,1517.7509730523163,509,1020,910
979,1,4,1517.7609729683966,511,1020,908
980,1,4,1517.7709728844766,509,1020,906
981,1,4,1517.7809728005568,505,1020,903
982,1,4,1517.7909727166368,510,1020,900
983,1,4,1517.800972632717,498,1020,897
984,1,4,1517.810972548797,506,1020,894
985,1,4,1517.8209724648773,494,1020,891
986,1,4,1517.8309723809573,502,1020,887
987,1,4,1517.8409722970375,513,1020,883
988,1,4,1517.8509722131175,521,1020,879
989,1,4,1517.8609721291978,517,1020,874
990,1,4,1517.870972045278,518,1020,871
991,1,4,1517.880971961358,516,1020,867
992,1,4,1517.8909718774382,511,1020,863
993,1,4,1517.9009717935182,507,1020,859
994,1,4,1517.9109717095985,507,1020,854
995,1,4,1517.9209716256785,479,1020,850
996,1,4,1517.9309715417587,458,1020,846
997,1,4,1517.9409714578387,472,1020,842
998,1,4,1517.950971373919,563,1020,838
999,1,4,1517.960971289999,576,1020,834
1000,1,4,1517.9709712060792,540,1020,831
1001,1,4,1517.9809711221592,524,1020,827
1002,1,4,1517.9909710382394,503,1020,820
1003,1,4,1518.0009709543194,489,1020,815
1004,1,4,1518.0109708703997,494,1020,809
1005,1,4,1518.02097078648,495,1020,805
1006,1,4,1518.03097070256,492,1020,801
1007,1,4,1518.0409706186401,489,1020,796
1008,1,4,1518.0509705347201,491,1020,792
1009,1,4,1518.0609704508004,489,1020,788
1010,1,4,1518.0709703668804,481,1020,784
1011,1,4,1518.0809702829606,488,1020,781
1012,1,4,1518.0909701990406,488,1020,778
1013,1,4,1518.1009701151208,489,1020,775
1014,1,4,1518.1109700312008,484,1020,773
1015,1,4,1518.120969947281,485,1020,770
1016,1,4,1518.130969863361,480,1020,767
1017,1,4,1518.1409697794413,489,1020,764
1018,1,4,1518.1509696955213,481,1020,762
1019,1,4,1518.1609696116016,482,1020,759
1020,1,4,1518.1709695276818,481,1020,756
1021,1,4,1518.1809694437618,501,1020,752
1022,1,4,1518.190969359842,509,1020,749
1023,1,4,1518.200969275922,514,1020,746
1024,1,4,1518.2109691920023,520,1020,743
1025,1,4,1518.2209691080823,520,1020,740
1026,1,4,1518.2309690241625,531,1020,737
1027,1,4,1518.2409689402425,516,1020,735
1028,1,4,1518.2509688563227,529,1020,732
1029,1,4,1518.2609687724027,524,1020,728
1030,1,4,1518.270968688483,514,1020,719
1031,1,4,1518.280968604563,513,1020,707
1032,1,4,1518.2909685206432,511,1020,691
1033,1,4,1518.3009684367232,507,1020,673
1034,1,4,1518.3109683528035,505,1020,654
1035,1,4,1518.3209682688837,510,1020,632
1036,1,4,1518.3309681849637,500,1020,611
1037,1,4,1518.340968101044,507,1020,593
1038,1,4,1518.350968017124,505,1020,575
1039,1,4,1518.3609679332042,505,1020,563
1040,1,4,1518.3709678492842,501,1020,551
1041,1,4,1518.3809677653644,511,1020,544
1042,1,4,1518.3909676814444,506,1020,536
1043,1,4,1518.4009675975246,504,1020,531
1044,1,4,1518.4109675136046,503,1020,527
1045,1,4,1518.4209674296849,507,1020,525
1046,1,4,1518.4309673457649,505,1020,523
1047,1,4,1518.4409672618451,506,1020,519
1048,1,4,1518.4509671779251,503,1020,518
1049,1,4,1518.4609670940054,502,1020,517
1050,1,4,1518.4709670100856,508,1020,516
1051,1,4,1518.4809669261656,507,1020,517
1052,1,4,1518.4909668422458,500,1020,516
1053,1,4,1518.5009667583258,503,1020,515
1054,1,4,1518.510966674406,506,1020,514
1055,1,4,1518.520966590486,514,1020,515
1056,1,4,1518.5309665065663,508,1020,515
1057,1,4,1518.5409664226463,510,1020,516
1058,1,4,1518.5509663387265,505,1020,519
1059,1,4,1518.5609662548065,497,1020,520
1060,1,4,1518.5709661708868,496,1020,524
1061,1,4,1518.5809660869668,488,1020,526
1062,1,4,1518.590966003047,495,1020,527
1063,1,4,1518.600965919127,500,1020,529
1064,1,4,1518.6109658352073,500,1020,531
1065,1,4,1518.6209657512875,501,1020,532
1066,1,4,1518.6309656673675,506,1020,532
1067,1,4,1518.6409655834477,517,1020,532
1068,1,4,1518.6509654995277,511,1020,534
1069,1,4,1518.660965415608,513,1020,535
1070,1,4,1518.670965331688,514,1020,536
1071,1,4,1518.6809652477682,515,1020,538
1072,1,4,1518.6909651638482,499,1020,539
1073,1,4,1518.7009650799284,503,1020,540
1074,1,4,1518.7109649960084,476,1020,541
1075,1,4,1518.7209649120887,432,1020,541
1076,1,4,1518.7309648281687,517,1020,541
1077,1,4,1518.740964744249,586,1020,540
1078,1,4,1518.750964660329,555,1020,539
1079,1,4,1518.7609645764092,536,1020,537
1080,1,4,1518.7709644924894,515,1020,533
1081,1,4,1518.7809644085694,507,1020,528
1082,1,4,1518.7909643246496,493,1020,525
1083,1,4,1518.8009642407296,491,1020,524
1084,1,4,1518.8109641568099,494,1020,523
1085,1,4,1518.8209640728899,488,1020,523
1086,1,4,1518.83096398897,491,1020,523
1087,1,4,1518.84096390505,492,1020,521
1088,1,4,1518.8509638211303,496,1020,522
1089,1,4,1518.8609637372103,492,1020,524
1090,1,4,1518.8709636532906,491,1020,526
1091,1,4,1518.8809635693706,491,1020,528
1092,1,4,1518.8909634854508,489,1020,531
1093,1,4,1518.900963401531,490,1020,533
1094,1,4,1518.910963317611,488,1020,532
1095,1,4,1518.9209632336913,486,1020,534
1096,1,4,1518.9309631497713,489,1020,536
1097,1,4,1518.9409630658515,487,1020,535
1098,1,4,1518.9509629819315,491,1020,536
1099,1,4,1518.9609628980118,497,1020,537
1100,1,4,1518.9709628140918,504,1020,538
1101,1,4,1518.980962730172,516,1020,539
1102,1,4,1518.990962646252,525,1020,541
1103,1,4,1519.0009625623322,523,1020,543
1104,1,4,1519.0109624784122,526,1020,545
1105,1,4,1519.0209623944925,536,1020,546
1106,1,4,1519.0309623105725,533,1020,549
1107,1,4,1519.0409622266527,528,1020,552
1108,1,4,1519.050962142733,519,1020,555
1109,1,4,1519.060962058813,513,1020,559
1110,1,4,1519.0709619748932,519,1020,562
1111,1,4,1519.0809618909732,521,1020,565
1112,1,4,1519.0909618070534,519,1020,567
1113,1,4,1519.1009617231334,514,1020,570
1114,1,4,1519.1109616392137,514,1020,571
1115,1,4,1519.1209615552937,508,1020,571
1116,1,4,1519.130961471374,511,1020,571
1117,1,4,1519.140961387454,507,1020,571
1118,1,4,1519.1509613035341,512,1020,571
1119,1,4,1519.1609612196141,520,1020,572
1120,1,4,1519.1709611356944,510,1020,572
1121,1,4,1519.1809610517744,518,1020,570
1122,1,4,1519.1909609678546,503,1020,571
1123,1,4,1519.2009608839348,519,1020,571
1124,1,4,1519.2109608000148,506,1020,571
1125,1,4,1519.220960716095,501,1020,572
1126,1,4,1519.230960632175,516,1020,573
1127,1,4,1519.2409605482553,512,1020,572
1128,1,4,1519.2509604643353,509,1020,572
1129,1,4,1519.2609603804156,512,1020,571
1130,1,4,1519.2709602964956,506,1020,572
1131,1,4,1519.2809602125758,509,1020,572
1132,1,4,1519.2909601286558,511,1020,572
1133,1,4,1519.300960044736,505,1020,571
1134,1,4,1519.310959960816,504,1020,571
1135,1,4,1519.3209598768963,500,1020,571
1136,1,4,1519.3309597929763,498,1020,572
1137,1,4,1519.3409597090565,500,1020,569
1138,1,4,1519.3509596251367,502,1020,568
1139,1,4,1519.3609595412167,503,1020,568
1140,1,4,1519.370959457297,503,1020,567
1141,1,4,1519.380959373377,497,1020,567
1142,1,4,1519.3909592894572,504,1020,565
1143,1,4,1519.4009592055372,513,1020,564
1144,1,4,1519.4109591216175,519,1020,563
1145,1,4,1519.4209590376975,524,1020,562
1146,1,4,1519.4309589537777,520,1020,562
1147,1,4,1519.4409588698577,516,1020,560
1148,1,4,1519.450958785938,505,1020,559
1149,1,4,1519.460958702018,505,1020,557
1150,1,4,1519.4709586180982,477,1020,556
1151,1,4,1519.4809585341782,440,1020,554
1152,1,4,1519.4909584502584,498,1020,553
1153,1,4,1519.5009583663386,598,1020,553
1154,1,4,1519.5109582824186,576,1020,552
1155,1,4,1519.5209581984989,545,1020,553
1156,1,4,1519.5309581145789,518,1020,550
1157,1,4,1519.540958030659,495,1020,548
1158,1,4,1519.5509579467391,498,1020,546
1159,1,4,1519.5609578628194,498,1020,546
1160,1,4,1519.5709577788994,490,1020,544
1161,1,4,1519.5809576949796,494,1020,545
1162,1,4,1519.5909576110596,480,1020,544
1163,1,4,1519.6009575271398,497,1020,543
1164,1,4,1519.6109574432198,494,1020,543
1165,1,4,1519.6209573593,503,1020,543
1166,1,4,1519.63095727538,498,1020,544
1167,1,4,1519.6409571914603,487,1020,545
1168,1,4,1519.6509571075405,494,1020,546
1169,1,4,1519.6609570236205,489,1020,549
1170,1,4,1519.6709569397008,481,1020,549
1171,1,4,1519.6809568557808,485,1020,549
1172,1,4,1519.690956771861,483,1020,550
1173,1,4,1519.700956687941,482,1020,551
1174,1,4,1519.7109566040212,490,1020,552
1175,1,4,1519.7209565201013,507,1020,553
1176,1,4,1519.7309564361815,510,1020,554
1177,1,4,1519.7409563522615,518,1020,555
1178,1,4,1519.7509562683417,519,1020,555
1179,1,4,1519.7609561844217,522,1020,555
1180,1,4,1519.770956100502,535,1020,556
1181,1,4,1519.780956016582,529,1020,555
1182,1,4,1519.7909559326622,529,1020,556
1183,1,4,1519.8009558487424,524,1020,557
1184,1,4,1519.8109557648224,522,1020,557
1185,1,4,1519.8209556809027,527,1020,557
1186,1,4,1519.8309555969827,524,1020,555
1187,1,4,1519.840955513063,516,1020,555
1188,1,4,1519.850955429143,516,1020,554
1189,1,4,1519.8609553452231,509,1020,550
1190,1,4,1519.8709552613032,510,1020,548
1191,1,4,1519.8809551773834,510,1020,548
1192,1,4,1519.8909550934634,518,1020,547
1193,1,4,1519.9009550095436,507,1020,546
1194,1,4,1519.9109549256236,504,1020,547
1195,1,4,1519.9209548417039,513,1020,544
1196,1,4,1519.9309547577839,506,1020,544
1197,1,4,1519.940954673864,505,1020,543
1198,1,4,1519.9509545899443,503,1020,542
1199,1,4,1519.9609545060243,501,1020,541
1200,1,4,1519.9709544221046,504,1020,539
1201,1,4,1519.9809543381846,504,1020,537
1202,1,4,1519.9909542542648,496,1020,535
1203,1,4,1520.0009541703448,499,1020,535
1204,1,4,1520.010954086425,501,1020,534
1205,1,4,1520.020954002505,503,1020,535
1206,1,4,1520.0309539185853,505,1020,534
1207,1,4,1520.0409538346653,506,1020,531
1208,1,4,1520.0509537507455,504,1020,530
1209,1,4,1520.0609536668255,503,1020,528
1210,1,4,1520.0709535829058,504,1020,525
1211,1,4,1520.0809534989858,496,1020,521
1212,1,4,1520.090953415066,495,1020,517
1213,1,4,1520.1009533311462,489,1020,512
1214,1,4,1520.1109532472262,483,1020,509
1215,1,4,1520.1209531633065,486,1020,503
1216,1,4,1520.1309530793865,491,1020,500
1217,1,4,1520.1409529954667,487,1020,497
1218,1,4,1520.1509529115467,499,1020,496
1219,1,4,1520.160952827627,507,1020,496
1220,1,4,1520.170952743707,507,1020,493
1221,1,4,1520.1809526597872,505,1020,492
1222,1,4,1520.1909525758672,510,1020,490
1223,1,4,1520.2009524919474,515,1020,487
1224,1,4,1520.2109524080274,501,1020,486
1225,1,4,1520.2209523241077,504,1020,481
1226,1,4,1520.230952240188,489,1020,477
1227,1,4,1520.240952156268,433,1020,473
1228,1,4,1520.2509520723481,495,1020,469
1229,1,4,1520.2609519884281,614,1020,465
1230,1,4,1520.2709519045084,585,1020,462
1231,1,4,1520.2809518205884,560,1020,458
1232,1,4,1520.2909517366686,536,1020,452
1233,1,4,1520.3009516527486,505,1020,447
1234,1,4,1520.3109515688288,488,1020,440
1235,1,4,1520.3209514849088,489,1020,434
1236,1,4,1520.330951400989,492,1020,429
1237,1,4,1520.340951317069,494,1020,427
1238,1,4,1520.3509512331493,492,1020,421
1239,1,4,1520.3609511492293,493,1020,414
1240,1,4,1520.3709510653096,489,1020,410
1241,1,4,1520.3809509813898,490,1020,404
1242,1,4,1520.3909508974698,496,1020,400
1243,1,4,1520.40095081355,490,1020,395
1244,1,4,1520.41095072963,489,1020,391
1245,1,4,1520.4209506457103,487,1020,386
1246,1,4,1520.4309505617903,486,1020,381
1247,1,4,1520.4409504778705,483,1020,378
1248,1,4,1520.4509503939505,480,1020,375
1249,1,4,1520.4609503100307,483,1020,371
1250,1,4,1520.4709502261107,496,1020,367
1251,1,4,1520.480950142191,499,1020,362
1252,1,4,1520.490950058271,513,1020,360
1253,1,4,1520.5009499743512,519,1020,355
1254,1,4,1520.5109498904312,527,1020,351
1255,1,4,1520.5209498065115,540,1020,348
1256,1,4,1520.5309497225917,544,1020,344
1257,1,4,1520.5409496386717,544,1020,339
1258,1,4,1520.550949554752,544,1020,336
1259,1,4,1520.560949470832,540,1020,335
1260,1,4,1520.5709493869122,540,1020,335
1261,1,4,1520.5809493029922,535,1020,334
1262,1,4,1520.5909492190724,524,1020,331
1263,1,4,1520.6009491351524,530,1020,332
1264,1,4,1520.6109490512326,529,1020,334
1265,1,4,1520.6209489673126,526,1020,337
1266,1,4,1520.6309488833929,526,1020,338
1267,1,4,1520.6409487994729,521,1020,340
1268,1,4,1520.650948715553,519,1020,343
1269,1,4,1520.6609486316331,521,1020,344
1270,1,4,1520.6709485477134,520,1020,343
1271,1,4,1520.6809484637936,518,1020,345
1272,1,4,1520.6909483798736,517,1020,343
1273,1,4,1520.7009482959538,518,1020,344
1274,1,4,1520.7109482120338,520,1020,342
1275,1,4,1520.720948128114,515,1020,344
1276,1,4,1520.730948044194,514,1020,343
1277,1,4,1520.7409479602743,514,1020,346
1278,1,4,1520.7509478763543,511,1020,350
1279,1,4,1520.7609477924345,512,1020,352
1280,1,4,1520.7709477085145,510,1020,355
1281,1,4,1520.7809476245948,514,1020,358
1282,1,4,1520.7909475406748,515,1020,363
1283,1,4,1520.800947456755,518,1020,365
1284,1,4,1520.810947372835,508,1020,365
1285,1,4,1520.8209472889152,504,1020,366
1286,1,4,1520.8309472049955,500,1020,368
1287,1,4,1520.8409471210755,495,1020,366
1288,1,4,1520.8509470371557,496,1020,368
1289,1,4,1520.8609469532357,497,1020,368
1290,1,4,1520.870946869316,500,1020,371
1291,1,4,1520.880946785396,498,1020,371
1292,1,4,1520.8909467014762,507,1020,371
1293,1,4,1520.9009466175562,519,1020,372
1294,1,4,1520.9109465336364,519,1020,371
1295,1,4,1520.9209464497164,507,1020,372
1296,1,4,1520.9309463657967,523,1020,368
1297,1,4,1520.9409462818767,522,1020,367
1298,1,4,1520.950946197957,515,1020,364
1299,1,4,1520.960946114037,507,1020,361
1300,1,4,1520.9709460301171,505,1020,356
1301,1,4,1520.9809459461974,486,1020,353
1302,1,4,1520.9909458622774,417,1020,350
1303,1,4,1521.0009457783576,517,1020,343
1304,1,4,1521.0109456944376,616,1020,338
1305,1,4,1521.0209456105179,588,1020,335
1306,1,4,1521.0309455265979,550,1020,330
1307,1,4,1521.040945442678,513,1020,327
1308,1,4,1521.050945358758,495,1020,322
1309,1,4,1521.0609452748383,490,1020,316
1310,1,4,1521.0709451909183,489,1020,313
1311,1,4,1521.0809451069986,487,1020,312
1312,1,4,1521.0909450230786,485,1020,307
1313,1,4,1521.1009449391588,489,1020,307
1314,1,4,1521.1109448552388,486,1020,303
1315,1,4,1521.120944771319,490,1020,300
1316,1,4,1521.1309446873993,487,1020,295
1317,1,4,1521.1409446034793,485,1020,293
1318,1,4,1521.1509445195595,493,1020,290
1319,1,4,1521.1609444356395,484,1020,284
1320,1,4,1521.1709443517198,481,1020,282
1321,1,4,1521.1809442677998,480,1020,277
1322,1,4,1521.19094418388,480,1020,273
1323,1,4,1521.20094409996,476,1020,267
1324,1,4,1521.2109440160402,480,1020,263
1325,1,4,1521.2209439321202,490,1020,260
1326,1,4,1521.2309438482005,495,1020,256
1327,1,4,1521.2409437642805,504,1020,253
1328,1,4,1521.2509436803607,516,1020,251
1329,1,4,1521.260943596441,522,1020,250
1330,1,4,1521.270943512521,533,1020,250
1331,1,4,1521.2809434286012,539,1020,256
1332,1,4,1521.2909433446812,534,1020,260
1333,1,4,1521.3009432607614,534,1020,265
1334,1,4,1521.3109431768414,535,1020,272
1335,1,4,1521.3209430929217,532,1020,279
1336,1,4,1521.3309430090017,528,1020,288
1337,1,4,1521.340942925082,522,1020,297
1338,1,4,1521.350942841162,518,1020,305
1339,1,4,1521.3609427572421,518,1020,313
1340,1,4,1521.3709426733221,514,1020,321
1341,1,4,1521.3809425894024,515,1020,329
1342,1,4,1521.3909425054824,516,1020,334
1343,1,4,1521.4009424215626,515,1020,335
1344,1,4,1521.4109423376428,513,1020,334
1345,1,4,1521.4209422537228,513,1020,332
1346,1,4,1521.430942169803,514,1020,330
1347,1,4,1521.440942085883,516,1020,328
1348,1,4,1521.4509420019633,513,1020,326
1349,1,4,1521.4609419180433,509,1020,325
1350,1,4,1521.4709418341236,513,1020,324
1351,1,4,1521.4809417502036,512,1020,324
1352,1,4,1521.4909416662838,508,1020,328
1353,1,4,1521.5009415823638,512,1020,333
1354,1,4,1521.510941498444,512,1020,339
1355,1,4,1521.520941414524,502,1020,345
1356,1,4,1521.5309413306043,500,1020,351
1357,1,4,1521.5409412466843,503,1020,357
1358,1,4,1521.5509411627645,502,1020,363
1359,1,4,1521.5609410788447,504,1020,367
1360,1,4,1521.5709409949247,509,1020,372
1361,1,4,1521.580940911005,502,1020,375
1362,1,4,1521.590940827085,518,1020,378
1363,1,4,1521.6009407431652,526,1020,380
1364,1,4,1521.6109406592452,522,1020,382
1365,1,4,1521.6209405753254,518,1020,384
1366,1,4,1521.6309404914055,520,1020,386
1367,1,4,1521.6409404074857,519,1020,389
1368,1,4,1521.6509403235657,509,1020,389
1369,1,4,1521.660940239646,504,1020,392
1370,1,4,1521.670940155726,480,1020,393
1371,1,4,1521.6809400718062,428,1020,394
1372,1,4,1521.6909399878862,484,1020,398
1373,1,4,1521.7009399039664,615,1020,398
1374,1,4,1521.7109398200466,605,1020,401
1375,1,4,1521.7209397361266,564,1020,401
1376,1,4,1521.7309396522069,521,1020,402
1377,1,4,1521.7409395682869,500,1020,402
1378,1,4,1521.750939484367,496,1020,401
1379,1,4,1521.7609394004471,489,1020,402
1380,1,4,1521.7709393165273,486,1020,404
1381,1,4,1521.7809392326074,486,1020,404
1382,1,4,1521.7909391486876,486,1020,406
1383,1,4,1521.8009390647676,486,1020,409
1384,1,4,1521.8109389808478,480,1020,409
1385,1,4,1521.8209388969278,488,1020,411
1386,1,4,1521.830938813008,488,1020,412
1387,1,4,1521.840938729088,488,1020,415
1388,1,4,1521.8509386451683,485,1020,417
1389,1,4,1521.8609385612485,480,1020,416
1390,1,4,1521.8709384773285,478,1020,417
1391,1,4,1521.8809383934088,477,1020,415
1392,1,4,1521.8909383094888,474,1020,414
1393,1,4,1521.900938225569,481,1020,413
1394,1,4,1521.910938141649,481,1020,411
1395,1,4,1521.9209380577292,490,1020,409
1396,1,4,1521.9309379738093,500,1020,408
1397,1,4,1521.9409378898895,515,1020,408
1398,1,4,1521.9509378059695,526,1020,406
1399,1,4,1521.9609377220497,533,1020,405
1400,1,4,1521.9709376381297,540,1020,404
1401,1,4,1521.98093755421,550,1020,406
1402,1,4,1521.99093747029,533,1020,403
1403,1,4,1522.0009373863702,537,1020,404
1404,1,4,1522.0109373024504,534,1020,405
1405,1,4,1522.0209372185304,532,1020,405
1406,1,4,1522.0309371346107,523,1020,406
1407,1,4,1522.0409370506907,526,1020,407
1408,1,4,1522.050936966771,524,1020,407
1409,1,4,1522.060936882851,521,1020,408
1410,1,4,1522.0709367989311,518,1020,407
1411,1,4,1522.0809367150111,517,1020,408
1412,1,4,1522.0909366310914,516,1020,407
1413,1,4,1522.1009365471714,515,1020,405
1414,1,4,1522.1109364632516,517,1020,406
1415,1,4,1522.1209363793316,521,1020,407
1416,1,4,1522.1309362954119,513,1020,404
1417,1,4,1522.1409362114919,504,1020,405
1418,1,4,1522.150936127572,507,1020,405
1419,1,4,1522.1609360436523,505,1020,407
1420,1,4,1522.1709359597323,500,1020,406
1421,1,4,1522.1809358758126,502,1020,407
1422,1,4,1522.1909357918926,505,1020,406
1423,1,4,1522.2009357079728,509,1020,408
1424,1,4,1522.2109356240528,523,1020,406
1425,1,4,1522.220935540133,523,1020,406
1426,1,4,1522.230935456213,525,1020,405
1427,1,4,1522.2409353722933,523,1020,403
1428,1,4,1522.2509352883733,524,1020,402
1429,1,4,1522.2609352044535,518,1020,402
1430,1,4,1522.2709351205335,508,1020,401
1431,1,4,1522.2809350366138,504,1020,402
1432,1,4,1522.2909349526938,466,1020,403
1433,1,4,1522.300934868774,408,1020,403
1434,1,4,1522.3109347848542,532,1020,405
1435,1,4,1522.3209347009342,627,1020,404
1436,1,4,1522.3309346170145,596,1020,406
1437,1,4,1522.3409345330945,554,1020,405
1438,1,4,1522.3509344491747,522,1020,403
1439,1,4,1522.3609343652547,496,1020,402
1440,1,4,1522.370934281335,493,1020,400
1441,1,4,1522.380934197415,487,1020,397
1442,1,4,1522.3909341134952,486,1020,398
1443,1,4,1522.4009340295752,489,1020,397
1444,1,4,1522.4109339456554,495,1020,399
1445,1,4,1522.4209338617354,492,1020,398
1446,1,4,1522.4309337778157,488,1020,397
1447,1,4,1522.4409336938957,494,1020,396
1448,1,4,1522.450933609976,487,1020,394
1449,1,4,1522.4609335260561,493,1020,390
1450,1,4,1522.4709334421361,487,1020,387
1451,1,4,1522.4809333582164,484,1020,386
1452,1,4,1522.4909332742964,468,1020,382
1453,1,4,1522.5009331903766,467,1020,379
1454,1,4,1522.5109331064566,472,1020,378
1455,1,4,1522.5209330225368,476,1020,375
1456,1,4,1522.5309329386168,483,1020,375
1457,1,4,1522.540932854697,489,1020,372
1458,1,4,1522.550932770777,512,1020,372
1459,1,4,1522.5609326868573,522,1020,371
1460,1,4,1522.5709326029373,532,1020,368
1461,1,4,1522.5809325190176,540,1020,368
1462,1,4,1522.5909324350978,543,1020,367
1463,1,4,1522.6009323511778,543,1020,367
1464,1,4,1522.610932267258,543,1020,367
1465,1,4,1522.620932183338,532,1020,367
1466,1,4,1522.6309320994183,543,1020,368
1467,1,4,1522.6409320154983,528,1020,368
1468,1,4,1522.6509319315785,523,1020,368
1469,1,4,1522.6609318476585,523,1020,369
1470,1,4,1522.6709317637387,520,1020,368
1471,1,4,1522.6809316798187,517,1020,367
1472,1,4,1522.690931595899,521,1020,366
1473,1,4,1522.700931511979,520,1020,368
1474,1,4,1522.7109314280592,524,1020,368
1475,1,4,1522.7209313441392,514,1020,369
1476,1,4,1522.7309312602194,511,1020,371
1477,1,4,1522.7409311762997,505,1020,371
1478,1,4,1522.7509310923797,505,1020,374
1479,1,4,1522.76093100846,510,1020,376
1480,1,4,1522.77093092454,505,1020,381
1481,1,4,1522.7809308406202,505,1020,383
1482,1,4,1522.7909307567002,499,1020,386
1483,1,4,1522.8009306727804,507,1020,387
1484,1,4,1522.8109305888604,522,1020,389
1485,1,4,1522.8209305049406,531,1020,389
1486,1,4,1522.8309304210206,540,1020,386
1487,1,4,1522.8409303371009,526,1020,385
1488,1,4,1522.8509302531809,524,1020,380
1489,1,4,1522.860930169261,525,1020,375
1490,1,4,1522.8709300853411,515,1020,370
1491,1,4,1522.8809300014213,506,1020,368
1492,1,4,1522.8909299175016,482,1020,363
1493,1,4,1522.9009298335816,428,1020,361
1494,1,4,1522.9109297496618,474,1020,359
1495,1,4,1522.9209296657418,615,1020,357
1496,1,4,1522.930929581822,591,1020,358
1497,1,4,1522.940929497902,560,1020,360
1498,1,4,1522.9509294139823,535,1020,361
1499,1,4,1522.9609293300623,509,1020,362
1500,1,4,1522.9709292461425,496,1020,367
1501,1,4,1522.9809291622225,494,1020,370
1502,1,4,1522.9909290783028,493,1020,375
1503,1,4,1523.0009289943828,487,1020,380
1504,1,4,1523.010928910463,485,1020,387
1505,1,4,1523.020928826543,487,1020,390
1506,1,4,1523.0309287426232,495,1020,394
1507,1,4,1523.0409286587035,496,1020,397
1508,1,4,1523.0509285747835,491,1020,398
1509,1,4,1523.0609284908637,491,1020,402
1510,1,4,1523.0709284069437,478,1020,403
1511,1,4,1523.080928323024,462,1020,402
1512,1,4,1523.090928239104,493,1020,402
1513,1,4,1523.1009281551842,483,1020,402
1514,1,4,1523.1109280712642,485,1020,403
1515,1,4,1523.1209279873444,486,1020,404
1516,1,4,1523.1309279034244,486,1020,403
1517,1,4,1523.1409278195047,489,1020,404
1518,1,4,1523.1509277355847,515,1020,402
1519,1,4,1523.160927651665,525,1020,401
1520,1,4,1523.170927567745,534,1020,402
1521,1,4,1523.1809274838251,535,1020,398
1522,1,4,1523.1909273999054,542,1020,397
1523,1,4,1523.2009273159854,542,1020,396
1524,1,4,1523.2109272320656,538,1020,395
1525,1,4,1523.2209271481456,545,1020,398
1526,1,4,1523.2309270642259,545,1020,396
1527,1,4,1523.2409269803059,539,1020,398
1528,1,4,1523.250926896386,528,1020,397
1529,1,4,1523.260926812466,525,1020,399
1530,1,4,1523.2709267285463,524,1020,397
1531,1,4,1523.2809266446263,520,1020,397
1532,1,4,1523.2909265607066,523,1020,397
1533,1,4,1523.3009264767866,498,1020,398
1534,1,4,1523.3109263928668,524,1020,401
1535,1,4,1523.3209263089468,515,1020,403
1536,1,4,1523.330926225027,506,1020,405
1537,1,4,1523.3409261411073,508,1020,408
1538,1,4,1523.3509260571873,504,1020,410
1539,1,4,1523.3609259732675,500,1020,412
1540,1,4,1523.3709258893475,504,1020,412
1541,1,4,1523.3809258054278,505,1020,412
1542,1,4,1523.3909257215078,512,1020,413
1543,1,4,1523.400925637588,532,1020,409
1544,1,4,1523.410925553668,516,1020,408
1545,1,4,1523.4209254697482,524,1020,406
1546,1,4,1523.4309253858282,523,1020,403
1547,1,4,1523.4409253019085,522,1020,403
1548,1,4,1523.4509252179885,519,1020,401
1549,1,4,1523.4609251340687,508,1020,398
1550,1,4,1523.4709250501487,502,1020,399
1551,1,4,1523.480924966229,465,1020,396
1552,1,4,1523.4909248823092,405,1020,393
1553,1,4,1523.5009247983892,510,1020,392
1554,1,4,1523.5109247144694,614,1020,391
1555,1,4,1523.5209246305494,591,1020,391
1556,1,4,1523.5309245466296,548,1020,391
1557,1,4,1523.5409244627097,520,1020,390
1558,1,4,1523.55092437879,503,1020,389
1559,1,4,1523.56092429487,495,1020,387
1560,1,4,1523.5709242109501,492,1020,388
1561,1,4,1523.5809241270301,489,1020,389
1562,1,4,1523.5909240431104,485,1020,390
1563,1,4,1523.6009239591904,487,1020,391
1564,1,4,1523.6109238752706,479,1020,393
1565,1,4,1523.6209237913506,489,1020,394
1566,1,4,1523.6309237074308,492,1020,395
1567,1,4,1523.640923623511,491,1020,399
1568,1,4,1523.650923539591,485,1020,399
1569,1,4,1523.6609234556713,482,1020,402
1570,1,4,1523.6709233717513,483,1020,406
1571,1,4,1523.6809232878315,479,1020,406
1572,1,4,1523.6909232039116,516,1020,408
1573,1,4,1523.7009231199918,466,1020,410
1574,1,4,1523.7109230360718,460,1020,413
1575,1,4,1523.720922952152,485,1020,413
1576,1,4,1523.730922868232,492,1020,413
1577,1,4,1523.7409227843123,508,1020,412
1578,1,4,1523.7509227003923,520,1020,411
1579,1,4,1523.7609226164725,529,1020,412
1580,1,4,1523.7709225325525,537,1020,409
1581,1,4,1523.7809224486327,543,1020,410
1582,1,4,1523.790922364713,540,1020,409
1583,1,4,1523.800922280793,541,1020,409
1584,1,4,1523.8109221968732,534,1020,412
1585,1,4,1523.8209221129532,531,1020,413
1586,1,4,1523.8309220290334,527,1020,414
1587,1,4,1523.8409219451135,526,1020,415
1588,1,4,1523.8509218611937,519,1020,419
1589,1,4,1523.8609217772737,518,1020,419
1590,1,4,1523.870921693354,514,1020,422
1591,1,4,1523.880921609434,516,1020,424
1592,1,4,1523.8909215255142,520,1020,426
1593,1,4,1523.9009214415942,516,1020,428
1594,1,4,1523.9109213576744,516,1020,432
1595,1,4,1523.9209212737546,514,1020,433
1596,1,4,1523.9309211898346,514,1020,436
1597,1,4,1523.9409211059149,507,1020,438
1598,1,4,1523.9509210219949,505,1020,442
1599,1,4,1523.960920938075,505,1020,444
1600,1,4,1523.970920854155,504,1020,449
1601,1,4,1523.9809207702353,503,1020,449
1602,1,4,1523.9909206863153,500,1020,451
1603,1,4,1524.0009206023956,504,1020,453
1604,1,4,1524.0109205184756,517,1020,456
1605,1,4,1524.0209204345558,523,1020,458
1606,1,4,1524.0309203506358,518,1020,462
1607,1,4,1524.040920266716,522,1020,462
1608,1,4,1524.050920182796,514,1020,465
1609,1,4,1524.0609200988763,512,1020,468
1610,1,4,1524.0709200149565,532,1020,472
1611,1,4,1524.0809199310365,519,1020,475
1612,1,4,1524.0909198471168,508,1020,478
1613,1,4,1524.1009197631968,475,1020,482
1614,1,4,1524.110919679277,402,1020,484
1615,1,4,1524.120919595357,519,1020,486
1616,1,4,1524.1309195114372,609,1020,489
1617,1,4,1524.1409194275172,581,1020,491
1618,1,4,1524.1509193435975,545,1020,493
1619,1,4,1524.1609192596775,516,1020,493
1620,1,4,1524.1709191757577,504,1020,493
1621,1,4,1524.1809190918377,500,1020,493
1622,1,4,1524.190919007918,491,1020,494
1623,1,4,1524.200918923998,497,1020,496
1624,1,4,1524.2109188400782,492,1020,497
1625,1,4,1524.2209187561584,498,1020,497
1626,1,4,1524.2309186722384,490,1020,496
1627,1,4,1524.2409185883187,494,1020,497
1628,1,4,1524.2509185043987,494,1020,499
1629,1,4,1524.260918420479,492,1020,497
1630,1,4,1524.270918336559,491,1020,498
1631,1,4,1524.2809182526391,487,1020,500
1632,1,4,1524.2909181687191,485,1020,497
1633,1,4,1524.3009180847994,481,1020,496
1634,1,4,1524.3109180008794,480,1020,495
1635,1,4,1524.3209179169596,476,1020,496
1636,1,4,1524.3309178330396,483,1020,493
1637,1,4,1524.3409177491199,493,1020,492
1638,1,4,1524.3509176651999,498,1020,488
1639,1,4,1524.36091758128,512,1020,487
1640,1,4,1524.3709174973603,522,1020,487
1641,1,4,1524.3809174134403,529,1020,484
1642,1,4,1524.3909173295206,536,1020,482
1643,1,4,1524.4009172456006,537,1020,483
1644,1,4,1524.4109171616808,534,1020,481
1645,1,4,1524.4209170777608,538,1020,477
1646,1,4,1524.430916993841,539,1020,476
1647,1,4,1524.440916909921,530,1020,475
1648,1,4,1524.4509168260013,531,1020,474
1649,1,4,1524.4609167420813,532,1020,473
1650,1,4,1524.4709166581615,514,1020,473
1651,1,4,1524.4809165742415,512,1020,473
1652,1,4,1524.4909164903218,513,1020,475
1653,1,4,1524.5009164064018,513,1020,473
1654,1,4,1524.510916322482,520,1020,474
1655,1,4,1524.5209162385622,526,1020,476
1656,1,4,1524.5309161546422,517,1020,477
1657,1,4,1524.5409160707225,515,1020,480
1658,1,4,1524.5509159868025,514,1020,483
1659,1,4,1524.5609159028827,515,1020,486
1660,1,4,1524.5709158189627,506,1020,488
1661,1,4,1524.580915735043,512,1020,491
1662,1,4,1524.590915651123,512,1020,492
1663,1,4,1524.6009155672032,507,1020,494
1664,1,4,1524.6109154832832,508,1020,497
1665,1,4,1524.6209153993634,506,1020,499
1666,1,4,1524.6309153154434,509,1020,500
1667,1,4,1524.6409152315236,504,1020,501
1668,1,4,1524.6509151476037,502,1020,502
1669,1,4,1524.660915063684,503,1020,504
1670,1,4,1524.6709149797641,514,1020,503
1671,1,4,1524.6809148958441,530,1020,504
1672,1,4,1524.6909148119244,524,1020,501
1673,1,4,1524.7009147280044,514,1020,501
1674,1,4,1524.7109146440846,518,1020,501
1675,1,4,1524.7209145601646,521,1020,502
1676,1,4,1524.7309144762448,513,1020,501
1677,1,4,1524.7409143923248,511,1020,501
1678,1,4,1524.750914308405,487,1020,503
1679,1,4,1524.760914224485,439,1020,501
1680,1,4,1524.7709141405653,453,1020,500
1681,1,4,1524.7809140566453,592,1020,500
1682,1,4,1524.7909139727255,602,1020,499
1683,1,4,1524.8009138888056,565,1020,499
1684,1,4,1524.8109138048858,529,1020,497
1685,1,4,1524.820913720966,503,1020,495
1686,1,4,1524.830913637046,497,1020,496
1687,1,4,1524.8409135531263,494,1020,492
1688,1,4,1524.8509134692063,491,1020,494
1689,1,4,1524.8609133852865,494,1020,495
1690,1,4,1524.8709133013665,490,1020,496
1691,1,4,1524.8809132174467,491,1020,496
1692,1,4,1524.8909131335267,490,1020,496
1693,1,4,1524.900913049607,487,1020,494
1694,1,4,1524.910912965687,489,1020,490
1695,1,4,1524.9209128817672,481,1020,489
1696,1,4,1524.9309127978472,489,1020,488
1697,1,4,1524.9409127139274,493,1020,485
1698,1,4,1524.9509126300077,488,1020,483
1699,1,4,1524.9609125460877,483,1020,481
1700,1,4,1524.970912462168,481,1020,480
1701,1,4,1524.980912378248,484,1020,479
1702,1,4,1524.9909122943282,489,1020,480
1703,1,4,1525.0009122104082,493,1020,478
1704,1,4,1525.0109121264884,505,1020,480
1705,1,4,1525.0209120425684,513,1020,478
1706,1,4,1525.0309119586486,527,1020,479
1707,1,4,1525.0409118747286,527,1020,480
1708,1,4,1525.0509117908089,545,1020,480
1709,1,4,1525.0609117068889,534,1020,480
1710,1,4,1525.070911622969,546,1020,480
1711,1,4,1525.080911539049,538,1020,482
1712,1,4,1525.0909114551293,533,1020,482
1713,1,4,1525.1009113712093,532,1020,483
1714,1,4,1525.1109112872896,525,1020,484
1715,1,4,1525.1209112033698,524,1020,486
1716,1,4,1525.1309111194498,510,1020,484
1717,1,4,1525.14091103553,516,1020,484
1718,1,4,1525.15091095161,524,1020,484
1719,1,4,1525.1609108676903,519,1020,484
1720,1,4,1525.1709107837703,513,1020,483
1721,1,4,1525.1809106998505,512,1020,483
1722,1,4,1525.1909106159305,513,1020,483
1723,1,4,1525.2009105320108,516,1020,482
1724,1,4,1525.2109104480908,513,1020,481
1725,1,4,1525.220910364171,512,1020,479
1726,1,4,1525.230910280251,512,1020,479
1727,1,4,1525.2409101963312,512,1020,477
1728,1,4,1525.2509101124115,515,1020,478
1729,1,4,1525.2609100284915,512,1020,477
1730,1,4,1525.2709099445717,501,1020,477
1731,1,4,1525.2809098606517,512,1020,475
1732,1,4,1525.290909776732,511,1020,473
1733,1,4,1525.300909692812,510,1020,472
1734,1,4,1525.3109096088922,517,1020,473
1735,1,4,1525.3209095249722,516,1020,473
1736,1,4,1525.3309094410524,510,1020,470
1737,1,4,1525.3409093571324,503,1020,471
1738,1,4,1525.3509092732127,500,1020,470
1739,1,4,1525.3609091892927,500,1020,472
1740,1,4,1525.370909105373,501,1020,468
1741,1,4,1525.380909021453,493,1020,467
1742,1,4,1525.3909089375331,507,1020,466
1743,1,4,1525.4009088536134,511,1020,464
1744,1,4,1525.4109087696934,514,1020,462
1745,1,4,1525.4209086857736,519,1020,460
1746,1,4,1525.4309086018536,519,1020,458
1747,1,4,1525.4409085179338,518,1020,456
1748,1,4,1525.4509084340139,518,1020,455
1749,1,4,1525.460908350094,516,1020,453
1750,1,4,1525.470908266174,507,1020,451
1751,1,4,1525.4809081822543,505,1020,451
1752,1,4,1525.4909080983343,468,1020,449
1753,1,4,1525.5009080144146,403,1020,450
1754,1,4,1525.5109079304946,493,1020,449
1755,1,4,1525.5209078465748,591,1020,449
1756,1,4,1525.5309077626548,595,1020,449
1757,1,4,1525.540907678735,560,1020,451
1758,1,4,1525.5509075948153,520,1020,448
1759,1,4,1525.5609075108953,504,1020,445
1760,1,4,1525.5709074269755,496,1020,443
1761,1,4,1525.5809073430555,490,1020,444
1762,1,4,1525.5909072591357,494,1020,445
1763,1,4,1525.6009071752158,498,1020,442
1764,1,4,1525.610907091296,495,1020,444
1765,1,4,1525.620907007376,496,1020,444
1766,1,4,1525.6309069234562,494,1020,445
1767,1,4,1525.6409068395362,495,1020,447
1768,1,4,1525.6509067556165,493,1020,449
1769,1,4,1525.6609066716965,491,1020,453
1770,1,4,1525.6709065877767,487,1020,456
1771,1,4,1525.6809065038567,488,1020,457
1772,1,4,1525.690906419937,484,1020,460
1773,1,4,1525.7009063360172,480,1020,462
1774,1,4,1525.7109062520972,483,1020,465
1775,1,4,1525.7209061681774,487,1020,467
1776,1,4,1525.7309060842574,494,1020,468
1777,1,4,1525.7409060003376,499,1020,469
1778,1,4,1525.7509059164177,508,1020,472
1779,1,4,1525.7609058324979,514,1020,471
1780,1,4,1525.770905748578,524,1020,472
1781,1,4,1525.7809056646581,538,1020,472
1782,1,4,1525.7909055807381,536,1020,474
1783,1,4,1525.8009054968184,539,1020,475
1784,1,4,1525.8109054128984,532,1020,476
1785,1,4,1525.8209053289786,546,1020,480
1786,1,4,1525.8309052450586,537,1020,481
1787,1,4,1525.8409051611388,537,1020,485
1788,1,4,1525.850905077219,527,1020,485
1789,1,4,1525.860904993299,524,1020,486
1790,1,4,1525.8709049093793,522,1020,488
1791,1,4,1525.8809048254593,522,1020,486
1792,1,4,1525.8909047415395,515,1020,487
1793,1,4,1525.9009046576195,512,1020,488
1794,1,4,1525.9109045736998,517,1020,487
1795,1,4,1525.9209044897798,518,1020,487
1796,1,4,1525.93090440586,512,1020,486
1797,1,4,1525.94090432194,518,1020,487
1798,1,4,1525.9509042380203,507,1020,488
1799,1,4,1525.9609041541003,514,1020,488
1800,1,4,1525.9709040701805,515,1020,485
1801,1,4,1525.9809039862605,518,1020,486
1802,1,4,1525.9909039023407,512,1020,482
1803,1,4,1526.000903818421,514,1020,483
1804,1,4,1526.010903734501,512,1020,482
1805,1,4,1526.0209036505812,512,1020,479
1806,1,4,1526.0309035666612,512,1020,481
1807,1,4,1526.0409034827414,510,1020,480
1808,1,4,1526.0509033988214,512,1020,479
1809,1,4,1526.0609033149017,509,1020,476
1810,1,4,1526.0709032309817,510,1020,476
1811,1,4,1526.080903147062,509,1020,477
1812,1,4,1526.090903063142,509,1020,474
1813,1,4,1526.1009029792222,512,1020,473
1814,1,4,1526.1109028953022,512,1020,474
1815,1,4,1526.1209028113824,507,1020,472
1816,1,4,1526.1309027274624,503,1020,471
1817,1,4,1526.1409026435426,502,1020,471
1818,1,4,1526.1509025596229,497,1020,472
1819,1,4,1526.1609024757029,490,1020,471
1820,1,4,1526.170902391783,499,1020,471
1821,1,4,1526.180902307863,501,1020,471
1822,1,4,1526.1909022239433,506,1020,470
1823,1,4,1526.2009021400233,504,1020,470
1824,1,4,1526.2109020561036,510,1020,472
1825,1,4,1526.2209019721836,517,1020,469
1826,1,4,1526.2309018882638,521,1020,469
1827,1,4,1526.2409018043438,519,1020,466
1828,1,4,1526.250901720424,520,1020,465
1829,1,4,1526.260901636504,516,1020,463
1830,1,4,1526.2709015525843,510,1020,463
1831,1,4,1526.2809014686645,497,1020,462
1832,1,4,1526.2909013847445,450,1020,460
1833,1,4,1526.3009013008248,412,1020,460
1834,1,4,1526.3109012169048,547,1020,459
1835,1,4,1526.320901132985,613,1020,459
1836,1,4,1526.330901049065,574,1020,460
1837,1,4,1526.3409009651452,550,1020,458
1838,1,4,1526.3509008812252,513,1020,456
1839,1,4,1526.3609007973055,500,1020,452
1840,1,4,1526.3709007133855,497,1020,451
1841,1,4,1526.3809006294657,495,1020,449
1842,1,4,1526.3909005455457,494,1020,449
1843,1,4,1526.400900461626,494,1020,449
1844,1,4,1526.410900377706,494,1020,450
1845,1,4,1526.4209002937862,496,1020,449
1846,1,4,1526.4309002098662,494,1020,449
1847,1,4,1526.4409001259464,497,1020,450
1848,1,4,1526.4509000420267,493,1020,452
1849,1,4,1526.4608999581067,492,1020,453
1850,1,4,1526.470899874187,489,1020,455
1851,1,4,1526.480899790267,481,1020,455
1852,1,4,1526.4908997063471,485,1020,456
1853,1,4,1526.5008996224271,482,1020,456
1854,1,4,1526.5108995385074,482,1020,457
1855,1,4,1526.5208994545874,486,1020,456
1856,1,4,1526.5308993706676,491,1020,456
1857,1,4,1526.5408992867476,504,1020,455
1858,1,4,1526.5508992028278,511,1020,455
1859,1,4,1526.5608991189079,522,1020,455
1860,1,4,1526.570899034988,526,1020,454
1861,1,4,1526.5808989510683,530,1020,454
1862,1,4,1526.5908988671483,537,1020,454
1863,1,4,1526.6008987832286,538,1020,455
1864,1,4,1526.6108986993086,541,1020,454
1865,1,4,1526.6208986153888,540,1020,454
1866,1,4,1526.6308985314688,535,1020,456
1867,1,4,1526.640898447549,527,1020,455
1868,1,4,1526.650898363629,529,1020,457
1869,1,4,1526.6608982797093,527,1020,454
1870,1,4,1526.6708981957893,521,1020,452
1871,1,4,1526.6808981118695,519,1020,452
1872,1,4,1526.6908980279495,517,1020,451
1873,1,4,1526.7008979440297,516,1020,453
1874,1,4,1526.7108978601098,511,1020,451
1875,1,4,1526.72089777619,516,1020,453
1876,1,4,1526.7308976922702,509,1020,453
1877,1,4,1526.7408976083502,514,1020,455
1878,1,4,1526.7508975244305,519,1020,456
1879,1,4,1526.7608974405105,515,1020,457
1880,1,4,1526.7708973565907,512,1020,459
1881,1,4,1526.7808972726707,514,1020,460
1882,1,4,1526.790897188751,514,1020,460
1883,1,4,1526.800897104831,512,1020,462
1884,1,4,1526.8108970209112,512,1020,462
1885,1,4,1526.8208969369912,508,1020,463
1886,1,4,1526.8308968530714,504,1020,464
1887,1,4,1526.8408967691514,510,1020,465
1888,1,4,1526.8508966852316,517,1020,466
1889,1,4,1526.8608966013117,513,1020,468
1890,1,4,1526.8708965173919,509,1020,467
1891,1,4,1526.8808964334721,509,1020,470
1892,1,4,1526.8908963495521,510,1020,470
1893,1,4,1526.9008962656324,509,1020,471
1894,1,4,1526.9108961817124,511,1020,473
1895,1,4,1526.9208960977926,510,1020,474
1896,1,4,1526.9308960138726,505,1020,475
1897,1,4,1526.9408959299528,508,1020,477
1898,1,4,1526.9508958460328,504,1020,476
1899,1,4,1526.960895762113,496,1020,478
1900,1,4,1526.970895678193,498,1020,477
1901,1,4,1526.9808955942733,497,1020,478
1902,1,4,1526.9908955103533,499,1020,478
1903,1,4,1527.0008954264335,507,1020,479
1904,1,4,1527.0108953425135,507,1020,480
1905,1,4,1527.0208952585938,507,1020,483
1906,1,4,1527.030895174674,516,1020,481
1907,1,4,1527.040895090754,518,1020,483
1908,1,4,1527.0508950068343,518,1020,482
1909,1,4,1527.0608949229143,520,1020,485
1910,1,4,1527.0708948389945,520,1020,483
1911,1,4,1527.0808947550745,511,1020,483
1912,1,4,1527.0908946711547,508,1020,484
1913,1,4,1527.1008945872347,470,1020,484
1914,1,4,1527.110894503315,411,1020,484
1915,1,4,1527.120894419395,501,1020,484
1916,1,4,1527.1308943354752,611,1020,485
1917,1,4,1527.1408942515552,589,1020,485
1918,1,4,1527.1508941676354,552,1020,486
1919,1,4,1527.1608940837154,518,1020,484
1920,1,4,1527.1708939997957,498,1020,483
1921,1,4,1527.180893915876,499,1020,483
1922,1,4,1527.190893831956,495,1020,480
1923,1,4,1527.2008937480362,483,1020,479
1924,1,4,1527.2108936641162,486,1020,478
1925,1,4,1527.2208935801964,492,1020,478
1926,1,4,1527.2308934962764,498,1020,474
1927,1,4,1527.2408934123566,497,1020,471
1928,1,4,1527.2508933284366,499,1020,468
1929,1,4,1527.2608932445169,484,1020,466
1930,1,4,1527.2708931605969,495,1020,467
1931,1,4,1527.280893076677,503,1020,466
1932,1,4,1527.290892992757,479,1020,469
1933,1,4,1527.3008929088373,491,1020,470
1934,1,4,1527.3108928249173,480,1020,474
1935,1,4,1527.3208927409976,488,1020,474
1936,1,4,1527.3308926570778,496,1020,475
1937,1,4,1527.3408925731578,499,1020,469
1938,1,4,1527.350892489238,501,1020,463
1939,1,4,1527.360892405318,502,1020,455
1940,1,4,1527.3708923213983,513,1020,446
1941,1,4,1527.3808922374783,526,1020,434
1942,1,4,1527.3908921535585,538,1020,422
1943,1,4,1527.4008920696385,532,1020,412
1944,1,4,1527.4108919857188,546,1020,398
1945,1,4,1527.4208919017988,540,1020,381
1946,1,4,1527.430891817879,545,1020,365
1947,1,4,1527.440891733959,547,1020,345
1948,1,4,1527.4508916500392,533,1020,326
1949,1,4,1527.4608915661192,535,1020,309
1950,1,4,1527.4708914821995,522,1020,289
1951,1,4,1527.4808913982797,526,1020,272
1952,1,4,1527.4908913143597,526,1020,256
1953,1,4,1527.50089123044,525,1020,239
1954,1,4,1527.51089114652,518,1020,227
1955,1,4,1527.5208910626002,531,1020,214
1956,1,4,1527.5308909786802,519,1020,204
1957,1,4,1527.5408908947604,522,1020,196
1958,1,4,1527.5508908108404,519,1020,190
1959,1,4,1527.5608907269207,503,1020,190
1960,1,4,1527.5708906430007,524,1020,186
1961,1,4,1527.580890559081,524,1020,189
1962,1,4,1527.590890475161,517,1020,193
1963,1,4,1527.6008903912411,514,1020,203
1964,1,4,1527.6108903073214,514,1020,214
1965,1,4,1527.6208902234014,508,1020,229
1966,1,4,1527.6308901394816,514,1020,247
1967,1,4,1527.6408900555616,514,1020,263
1968,1,4,1527.6508899716418,506,1020,282
1969,1,4,1527.6608898877219,506,1020,297
1970,1,4,1527.670889803802,508,1020,314
1971,1,4,1527.680889719882,514,1020,329
1972,1,4,1527.6908896359623,505,1020,344
1973,1,4,1527.7008895520423,508,1020,358
1974,1,4,1527.7108894681226,511,1020,375
1975,1,4,1527.7208893842026,508,1020,388
1976,1,4,1527.7308893002828,511,1020,403
1977,1,4,1527.7408892163628,506,1020,414
1978,1,4,1527.750889132443,509,1020,425
1979,1,4,1527.760889048523,506,1020,433
1980,1,4,1527.7708889646033,501,1020,441
1981,1,4,1527.7808888806835,494,1020,448
1982,1,4,1527.7908887967635,491,1020,455
1983,1,4,1527.8008887128437,494,1020,460
1984,1,4,1527.8108886289237,488,1020,465
1985,1,4,1527.820888545004,499,1020,471
1986,1,4,1527.830888461084,499,1020,478
1987,1,4,1527.8408883771642,505,1020,480
1988,1,4,1527.8508882932442,506,1020,483
1989,1,4,1527.8608882093245,515,1020,488
1990,1,4,1527.8708881254045,519,1020,490
1991,1,4,1527.8808880414847,516,1020,492
1992,1,4,1527.8908879575647,512,1020,495
1993,1,4,1527.900887873645,512,1020,497
1994,1,4,1527.9108877897252,507,1020,499
1995,1,4,1527.9208877058052,504,1020,501
1996,1,4,1527.9308876218854,472,1020,503
1997,1,4,1527.9408875379654,422,1020,504
1998,1,4,1527.9508874540456,506,1020,506
1999,1,4,1527.9608873701256,608,1020,508
2000,1,4,1527.9708872862059,584,1020,510
2001,1,4,1527.9808872022859,547,1020,511
2002,1,4,1527.9908871183661,516,1020,511
2003,1,4,1528.0008870344461,503,1020,511
2004,1,4,1528.0108869505264,489,1020,511
2005,1,4,1528.0208868666064,497,1020,512
2006,1,4,1528.0308867826866,490,1020,513
2007,1,4,1528.0408866987666,495,1020,515
2008,1,4,1528.0508866148468,493,1020,515
2009,1,4,1528.060886530927,494,1020,517
2010,1,4,1528.070886447007,497,1020,518
2011,1,4,1528.0808863630873,492,1020,519
2012,1,4,1528.0908862791673,494,1020,520
2013,1,4,1528.1008861952475,489,1020,522
2014,1,4,1528.1108861113275,489,1020,522
2015,1,4,1528.1208860274078,489,1020,523
2016,1,4,1528.1308859434878,481,1020,522
2017,1,4,1528.140885859568,480,1020,523
2018,1,4,1528.150885775648,477,1020,522
2019,1,4,1528.1608856917283,483,1020,523
2020,1,4,1528.1708856078083,495,1020,525
2021,1,4,1528.1808855238885,492,1020,523
2022,1,4,1528.1908854399685,502,1020,523
2023,1,4,1528.2008853560487,509,1020,525
2024,1,4,1528.210885272129,522,1020,524
2025,1,4,1528.220885188209,536,1020,525
2026,1,4,1528.2308851042892,539,1020,526
2027,1,4,1528.2408850203692,536,1020,527
2028,1,4,1528.2508849364494,542,1020,527
2029,1,4,1528.2608848525294,535,1020,530
2030,1,4,1528.2708847686097,532,1020,529
2031,1,4,1528.2808846846897,536,1020,531
2032,1,4,1528.29088460077,525,1020,531
2033,1,4,1528.30088451685,520,1020,534
2034,1,4,1528.3108844329302,519,1020,532
2035,1,4,1528.3208843490102,518,1020,535
2036,1,4,1528.3308842650904,513,1020,533
2037,1,4,1528.3408841811704,519,1020,533
2038,1,4,1528.3508840972506,513,1020,533
2039,1,4,1528.3608840133309,512,1020,534
2040,1,4,1528.3708839294109,512,1020,533
2041,1,4,1528.380883845491,516,1020,536
2042,1,4,1528.390883761571,512,1020,535
2043,1,4,1528.4008836776513,510,1020,535
2044,1,4,1528.4108835937313,511,1020,536
2045,1,4,1528.4208835098116,514,1020,535
2046,1,4,1528.4308834258916,519,1020,535
2047,1,4,1528.4408833419718,505,1020,535
2048,1,4,1528.4508832580518,513,1020,536
2049,1,4,1528.460883174132,510,1020,536
2050,1,4,1528.470883090212,513,1020,536
2051,1,4,1528.4808830062923,514,1020,536
2052,1,4,1528.4908829223723,510,1020,537
2053,1,4,1528.5008828384525,508,1020,537
2054,1,4,1528.5108827545328,515,1020,537
2055,1,4,1528.5208826706128,511,1020,536
2056,1,4,1528.530882586693,510,1020,537
2057,1,4,1528.540882502773,506,1020,537
2058,1,4,1528.5508824188532,511,1020,535
2059,1,4,1528.5608823349332,513,1020,535
2060,1,4,1528.5708822510135,512,1020,535
2061,1,4,1528.5808821670935,509,1020,533
2062,1,4,1528.5908820831737,505,1020,533
2063,1,4,1528.6008819992537,511,1020,531
2064,1,4,1528.610881915334,498,1020,532
2065,1,4,1528.620881831414,498,1020,533
2066,1,4,1528.6308817474942,503,1020,531
2067,1,4,1528.6408816635742,492,1020,531
2068,1,4,1528.6508815796544,499,1020,530
2069,1,4,1528.6608814957347,504,1020,529
2070,1,4,1528.6708814118147,499,1020,528
2071,1,4,1528.680881327895,508,1020,528
2072,1,4,1528.690881243975,518,1020,529
2073,1,4,1528.7008811600551,520,1020,527
2074,1,4,1528.7108810761351,521,1020,527
2075,1,4,1528.7208809922154,515,1020,526
2076,1,4,1528.7308809082954,515,1020,525
2077,1,4,1528.7408808243756,506,1020,525
2078,1,4,1528.7508807404556,513,1020,524
2079,1,4,1528.7608806565358,482,1020,523
2080,1,4,1528.7708805726159,436,1020,522
2081,1,4,1528.780880488696,487,1020,522
2082,1,4,1528.790880404776,601,1020,521
2083,1,4,1528.8008803208563,583,1020,521
2084,1,4,1528.8108802369366,555,1020,520
2085,1,4,1528.8208801530166,526,1020,519
2086,1,4,1528.8308800690968,505,1020,517
2087,1,4,1528.8408799851768,502,1020,516
2088,1,4,1528.850879901257,492,1020,514
2089,1,4,1528.860879817337,501,1020,514
2090,1,4,1528.8708797334173,496,1020,513
2091,1,4,1528.8808796494973,494,1020,514
2092,1,4,1528.8908795655775,492,1020,515
2093,1,4,1528.9008794816575,492,1020,517
2094,1,4,1528.9108793977377,494,1020,515
2095,1,4,1528.9208793138177,496,1020,515
2096,1,4,1528.930879229898,494,1020,516
2097,1,4,1528.9408791459782,492,1020,513
2098,1,4,1528.9508790620582,492,1020,513
2099,1,4,1528.9608789781385,491,1020,512
2100,1,4,1528.9708788942185,484,1020,511
2101,1,4,1528.9808788102987,483,1020,511
2102,1,4,1528.9908787263787,485,1020,510
2103,1,4,1529.000878642459,487,1020,508
2104,1,4,1529.010878558539,494,1020,508
2105,1,4,1529.0208784746192,503,1020,506
2106,1,4,1529.0308783906992,514,1020,506
2107,1,4,1529.0408783067794,520,1020,505
2108,1,4,1529.0508782228594,528,1020,507
2109,1,4,1529.0608781389396,536,1020,505
2110,1,4,1529.0708780550196,535,1020,507
2111,1,4,1529.0808779710999,543,1020,505
2112,1,4,1529.09087788718,539,1020,508
2113,1,4,1529.1008778032601,532,1020,506
2114,1,4,1529.1108777193404,531,1020,507
2115,1,4,1529.1208776354204,525,1020,509
2116,1,4,1529.1308775515006,522,1020,506
2117,1,4,1529.1408774675806,528,1020,506
2118,1,4,1529.1508773836608,515,1020,505
2119,1,4,1529.1608772997408,514,1020,504
2120,1,4,1529.170877215821,517,1020,506
2121,1,4,1529.180877131901,511,1020,504
2122,1,4,1529.1908770479813,512,1020,504
2123,1,4,1529.2008769640613,515,1020,505
2124,1,4,1529.2108768801415,514,1020,506
2125,1,4,1529.2208767962215,514,1020,506
2126,1,4,1529.2308767123018,518,1020,506
2127,1,4,1529.240876628382,513,1020,506
2128,1,4,1529.250876544462,513,1020,507
2129,1,4,1529.2608764605422,517,1020,506
2130,1,4,1529.2708763766223,514,1020,504
2131,1,4,1529.2808762927025,511,1020,504
2132,1,4,1529.2908762087825,517,1020,504
2133,1,4,1529.3008761248627,513,1020,503
2134,1,4,1529.3108760409427,514,1020,503
2135,1,4,1529.320875957023,510,1020,502
2136,1,4,1529.330875873103,512,1020,503
2137,1,4,1529.3408757891832,513,1020,501
2138,1,4,1529.3508757052632,510,1020,502
2139,1,4,1529.3608756213434,510,1020,502
2140,1,4,1529.3708755374234,509,1020,500
2141,1,4,1529.3808754535037,512,1020,499
2142,1,4,1529.390875369584,510,1020,497
2143,1,4,1529.400875285664,505,1020,497
2144,1,4,1529.4108752017441,509,1020,497
2145,1,4,1529.4208751178242,511,1020,494
2146,1,4,1529.4308750339044,509,1020,494
2147,1,4,1529.4408749499844,511,1020,493
2148,1,4,1529.4508748660646,513,1020,492
2149,1,4,1529.4608747821446,499,1020,492
2150,1,4,1529.4708746982249,505,1020,491
2151,1,4,1529.4808746143049,493,1020,491
2152,1,4,1529.490874530385,498,1020,492
2153,1,4,1529.500874446465,498,1020,489
2154,1,4,1529.5108743625453,502,1020,490
2155,1,4,1529.5208742786253,502,1020,487
2156,1,4,1529.5308741947056,503,1020,487
2157,1,4,1529.5408741107858,515,1020,487
2158,1,4,1529.5508740268658,517,1020,485
2159,1,4,1529.560873942946,514,1020,485
2160,1,4,1529.570873859026,518,1020,487
2161,1,4,1529.5808737751063,518,1020,484
2162,1,4,1529.5908736911863,512,1020,483
2163,1,4,1529.6008736072665,511,1020,483
2164,1,4,1529.6108735233465,485,1020,482
2165,1,4,1529.6208734394268,451,1020,481
2166,1,4,1529.6308733555068,456,1020,481
2167,1,4,1529.640873271587,577,1020,481
2168,1,4,1529.650873187667,595,1020,482
2169,1,4,1529.6608731037472,558,1020,482
2170,1,4,1529.6708730198272,532,1020,481
2171,1,4,1529.6808729359075,510,1020,480
2172,1,4,1529.6908728519877,502,1020,479
2173,1,4,1529.7008727680677,494,1020,478
2174,1,4,1529.710872684148,494,1020,477
2175,1,4,1529.720872600228,496,1020,479
2176,1,4,1529.7308725163082,491,1020,479
2177,1,4,1529.7408724323882,490,1020,481
2178,1,4,1529.7508723484684,495,1020,480
2179,1,4,1529.7608722645484,496,1020,481
2180,1,4,1529.7708721806287,495,1020,479
2181,1,4,1529.7808720967087,496,1020,480
2182,1,4,1529.790872012789,494,1020,481
2183,1,4,1529.800871928869,493,1020,479
2184,1,4,1529.8108718449491,484,1020,479
2185,1,4,1529.8208717610291,482,1020,480
2186,1,4,1529.8308716771094,482,1020,479
2187,1,4,1529.8408715931896,483,1020,478
2188,1,4,1529.8508715092696,482,1020,478
2189,1,4,1529.8608714253498,496,1020,477
2190,1,4,1529.8708713414298,504,1020,476
2191,1,4,1529.88087125751,507,1020,476
2192,1,4,1529.89087117359,519,1020,476
2193,1,4,1529.9008710896703,527,1020,476
2194,1,4,1529.9108710057503,527,1020,477
2195,1,4,1529.9208709218306,536,1020,476
2196,1,4,1529.9308708379106,542,1020,478
2197,1,4,1529.9408707539908,536,1020,479
2198,1,4,1529.9508706700708,536,1020,480
2199,1,4,1529.960870586151,532,1020,483
2200,1,4,1529.970870502231,527,1020,483
2201,1,4,1529.9808704183113,524,1020,484
2202,1,4,1529.9908703343915,515,1020,485
2203,1,4,1530.0008702504715,520,1020,485
2204,1,4,1530.0108701665517,515,1020,487
2205,1,4,1530.0208700826317,516,1020,486
2206,1,4,1530.030869998712,516,1020,486
2207,1,4,1530.040869914792,516,1020,489
2208,1,4,1530.0508698308722,512,1020,487
2209,1,4,1530.0608697469522,515,1020,488
2210,1,4,1530.0708696630325,513,1020,491
2211,1,4,1530.0808695791125,510,1020,489
2212,1,4,1530.0908694951927,513,1020,488
2213,1,4,1530.1008694112727,509,1020,489
2214,1,4,1530.110869327353,511,1020,489
2215,1,4,1530.120869243433,517,1020,490
2216,1,4,1530.1308691595132,513,1020,492
2217,1,4,1530.1408690755934,512,1020,491
2218,1,4,1530.1508689916734,514,1020,492
2219,1,4,1530.1608689077536,515,1020,492
2220,1,4,1530.1708688238336,511,1020,494
2221,1,4,1530.1808687399139,510,1020,492
2222,1,4,1530.1908686559939,512,1020,492
2223,1,4,1530.2008685720741,510,1020,491
2224,1,4,1530.2108684881541,510,1020,491
2225,1,4,1530.2208684042344,512,1020,491
2226,1,4,1530.2308683203144,511,1020,492
2227,1,4,1530.2408682363946,514,1020,490
2228,1,4,1530.2508681524746,509,1020,490
2229,1,4,1530.2608680685548,511,1020,491
2230,1,4,1530.270867984635,505,1020,489
2231,1,4,1530.280867900715,510,1020,488
2232,1,4,1530.2908678167953,508,1020,488
2233,1,4,1530.3008677328753,504,1020,487
2234,1,4,1530.3108676489555,498,1020,487
2235,1,4,1530.3208675650355,496,1020,486
2236,1,4,1530.3308674811158,497,1020,485
2237,1,4,1530.3408673971958,496,1020,485
2238,1,4,1530.350867313276,500,1020,484
2239,1,4,1530.360867229356,503,1020,484
2240,1,4,1530.3708671454363,505,1020,483
2241,1,4,1530.3808670615163,511,1020,483
2242,1,4,1530.3908669775965,517,1020,482
2243,1,4,1530.4008668936765,518,1020,481
2244,1,4,1530.4108668097567,518,1020,481
2245,1,4,1530.420866725837,518,1020,480
2246,1,4,1530.430866641917,519,1020,481
2247,1,4,1530.4408665579972,508,1020,480
2248,1,4,1530.4508664740772,498,1020,480
2249,1,4,1530.4608663901574,469,1020,479
2250,1,4,1530.4708663062374,432,1020,480
2251,1,4,1530.4808662223177,527,1020,478
2252,1,4,1530.4908661383977,610,1020,478
2253,1,4,1530.500866054478,576,1020,479
2254,1,4,1530.510865970558,542,1020,477
2255,1,4,1530.5208658866381,511,1020,475
2256,1,4,1530.5308658027182,498,1020,474
2257,1,4,1530.5408657187984,496,1020,472
2258,1,4,1530.5508656348784,497,1020,472
2259,1,4,1530.5608655509586,488,1020,472
2260,1,4,1530.5708654670389,499,1020,472
2261,1,4,1530.5808653831189,495,1020,473
2262,1,4,1530.590865299199,498,1020,475
2263,1,4,1530.600865215279,490,1020,473
2264,1,4,1530.6108651313593,488,1020,473
2265,1,4,1530.6208650474393,492,1020,476
2266,1,4,1530.6308649635196,486,1020,474
2267,1,4,1530.6408648795996,493,1020,477
2268,1,4,1530.6508647956798,489,1020,475
2269,1,4,1530.6608647117598,487,1020,475
2270,1,4,1530.67086462784,485,1020,475
2271,1,4,1530.68086454392,482,1020,476
2272,1,4,1530.6908644600003,487,1020,475
2273,1,4,1530.7008643760803,485,1020,474
2274,1,4,1530.7108642921605,496,1020,473
2275,1,4,1530.7208642082408,507,1020,473
2276,1,4,1530.7308641243208,515,1020,473
2277,1,4,1530.740864040401,521,1020,473
2278,1,4,1530.750863956481,532,1020,475
2279,1,4,1530.7608638725612,538,1020,474
2280,1,4,1530.7708637886412,542,1020,475
2281,1,4,1530.7808637047215,541,1020,476
2282,1,4,1530.7908636208015,533,1020,476
2283,1,4,1530.8008635368817,534,1020,479
2284,1,4,1530.8108634529617,530,1020,480
2285,1,4,1530.820863369042,526,1020,483
2286,1,4,1530.830863285122,527,1020,481
2287,1,4,1530.8408632012022,523,1020,481
2288,1,4,1530.8508631172822,519,1020,481
2289,1,4,1530.8608630333624,514,1020,483
2290,1,4,1530.8708629494427,513,1020,482
2291,1,4,1530.8808628655227,512,1020,483
2292,1,4,1530.890862781603,509,1020,481
2293,1,4,1530.900862697683,511,1020,480
2294,1,4,1530.9108626137631,508,1020,477
2295,1,4,1530.9208625298431,508,1020,473
2296,1,4,1530.9308624459234,517,1020,467
2297,1,4,1530.9408623620034,516,1020,462
2298,1,4,1530.9508622780836,513,1020,451
2299,1,4,1530.9608621941636,508,1020,440
2300,1,4,1530.9708621102438,519,1020,428
2301,1,4,1530.9808620263238,513,1020,417
2302,1,4,1530.990861942404,515,1020,409
2303,1,4,1531.000861858484,515,1020,399
2304,1,4,1531.0108617745643,516,1020,390
2305,1,4,1531.0208616906446,522,1020,383
2306,1,4,1531.0308616067246,513,1020,376
2307,1,4,1531.0408615228048,516,1020,371
2308,1,4,1531.0508614388848,510,1020,368
2309,1,4,1531.060861354965,512,1020,363
2310,1,4,1531.070861271045,512,1020,361
2311,1,4,1531.0808611871253,511,1020,358
2312,1,4,1531.0908611032053,515,1020,356
2313,1,4,1531.1008610192855,511,1020,354
2314,1,4,1531.1108609353655,511,1020,352
2315,1,4,1531.1208608514457,511,1020,351
2316,1,4,1531.1308607675257,508,1020,350
2317,1,4,1531.140860683606,506,1020,351
2318,1,4,1531.150860599686,501,1020,352
2319,1,4,1531.1608605157662,499,1020,353
2320,1,4,1531.1708604318464,494,1020,358
2321,1,4,1531.1808603479265,492,1020,361
2322,1,4,1531.1908602640067,499,1020,367
2323,1,4,1531.2008601800867,501,1020,374
2324,1,4,1531.210860096167,505,1020,382
2325,1,4,1531.220860012247,502,1020,387
2326,1,4,1531.2308599283272,517,1020,395
2327,1,4,1531.2408598444072,518,1020,402
2328,1,4,1531.2508597604874,519,1020,409
2329,1,4,1531.2608596765674,516,1020,412
2330,1,4,1531.2708595926476,515,1020,417
2331,1,4,1531.2808595087276,508,1020,420
2332,1,4,1531.2908594248079,507,1020,424
2333,1,4,1531.300859340888,486,1020,427
2334,1,4,1531.3108592569681,440,1020,430
2335,1,4,1531.3208591730483,465,1020,433
2336,1,4,1531.3308590891284,587,1020,435
2337,1,4,1531.3408590052086,603,1020,438
2338,1,4,1531.3508589212886,559,1020,439
2339,1,4,1531.3608588373688,528,1020,442
2340,1,4,1531.3708587534488,506,1020,442
2341,1,4,1531.380858669529,487,1020,441
2342,1,4,1531.390858585609,496,1020,442
2343,1,4,1531.4008585016893,494,1020,443
2344,1,4,1531.4108584177693,490,1020,445
2345,1,4,1531.4208583338495,490,1020,446
2346,1,4,1531.4308582499295,495,1020,448
2347,1,4,1531.4408581660098,487,1020,449
2348,1,4,1531.4508580820898,491,1020,450
2349,1,4,1531.46085799817,493,1020,452
2350,1,4,1531.4708579142502,487,1020,454
2351,1,4,1531.4808578303303,491,1020,458
2352,1,4,1531.4908577464105,487,1020,459
2353,1,4,1531.5008576624905,490,1020,462
2354,1,4,1531.5108575785707,479,1020,463
2355,1,4,1531.5208574946507,485,1020,465
2356,1,4,1531.530857410731,486,1020,466
2357,1,4,1531.540857326811,486,1020,468
2358,1,4,1531.5508572428912,492,1020,472
2359,1,4,1531.5608571589712,505,1020,472
2360,1,4,1531.5708570750514,508,1020,474
2361,1,4,1531.5808569911314,521,1020,476
2362,1,4,1531.5908569072117,529,1020,477
2363,1,4,1531.600856823292,531,1020,481
2364,1,4,1531.610856739372,535,1020,483
2365,1,4,1531.6208566554521,542,1020,487
2366,1,4,1531.6308565715321,535,1020,492
2367,1,4,1531.6408564876124,535,1020,499
2368,1,4,1531.6508564036924,531,1020,504
2369,1,4,1531.6608563197726,527,1020,508
2370,1,4,1531.6708562358526,524,1020,510
2371,1,4,1531.6808561519329,520,1020,513
2372,1,4,1531.6908560680129,519,1020,516
2373,1,4,1531.700855984093,519,1020,518
2374,1,4,1531.710855900173,519,1020,522
2375,1,4,1531.7208558162533,518,1020,522
2376,1,4,1531.7308557323333,504,1020,524
2377,1,4,1531.7408556484136,514,1020,528
2378,1,4,1531.7508555644938,515,1020,530
2379,1,4,1531.7608554805738,511,1020,535
2380,1,4,1531.770855396654,513,1020,536
2381,1,4,1531.780855312734,512,1020,540
2382,1,4,1531.7908552288143,515,1020,544
2383,1,4,1531.8008551448943,513,1020,545
2384,1,4,1531.8108550609745,511,1020,549
2385,1,4,1531.8208549770545,507,1020,551
2386,1,4,1531.8308548931348,514,1020,554
2387,1,4,1531.8408548092148,512,1020,559
2388,1,4,1531.850854725295,511,1020,563
2389,1,4,1531.860854641375,508,1020,565
2390,1,4,1531.8708545574552,509,1020,570
2391,1,4,1531.8808544735352,514,1020,575
2392,1,4,1531.8908543896155,512,1020,582
2393,1,4,1531.9008543056957,513,1020,584
2394,1,4,1531.9108542217757,512,1020,589
2395,1,4,1531.920854137856,510,1020,591
2396,1,4,1531.930854053936,504,1020,593
2397,1,4,1531.9408539700162,504,1020,592
2398,1,4,1531.9508538860962,507,1020,588
2399,1,4,1531.9608538021764,504,1020,582
2400,1,4,1531.9708537182564,503,1020,571
2401,1,4,1531.9808536343367,495,1020,555
2402,1,4,1531.9908535504167,487,1020,534
2403,1,4,1532.000853466497,502,1020,511
2404,1,4,1532.010853382577,507,1020,484
2405,1,4,1532.0208532986571,503,1020,456
2406,1,4,1532.0308532147371,499,1020,428
2407,1,4,1532.0408531308174,518,1020,400
2408,1,4,1532.0508530468976,518,1020,375
2409,1,4,1532.0608529629776,516,1020,351
2410,1,4,1532.0708528790578,517,1020,329
2411,1,4,1532.0808527951378,519,1020,308
2412,1,4,1532.090852711218,519,1020,289
2413,1,4,1532.100852627298,502,1020,275
2414,1,4,1532.1108525433783,506,1020,260
2415,1,4,1532.1208524594583,473,1020,250
2416,1,4,1532.1308523755386,448,1020,242
2417,1,4,1532.1408522916186,559,1020,231
2418,1,4,1532.1508522076988,610,1020,225
2419,1,4,1532.1608521237788,569,1020,214
2420,1,4,1532.170852039859,535,1020,205
2421,1,4,1532.180851955939,507,1020,196
2422,1,4,1532.1908518720193,508,1020,187
2423,1,4,1532.2008517880995,494,1020,183
2424,1,4,1532.2108517041795,496,1020,180
2425,1,4,1532.2208516202597,495,1020,180
2426,1,4,1532.2308515363397,489,1020,186
2427,1,4,1532.24085145242,489,1020,187
2428,1,4,1532.2508513685,491,1020,195
2429,1,4,1532.2608512845802,498,1020,205
2430,1,4,1532.2708512006602,492,1020,211
2431,1,4,1532.2808511167405,488,1020,221
2432,1,4,1532.2908510328205,490,1020,234
2433,1,4,1532.3008509489007,484,1020,242
2434,1,4,1532.3108508649807,491,1020,255
2435,1,4,1532.320850781061,484,1020,265
2436,1,4,1532.330850697141,490,1020,278
2437,1,4,1532.3408506132212,484,1020,288
2438,1,4,1532.3508505293014,488,1020,296
2439,1,4,1532.3608504453814,490,1020,300
2440,1,4,1532.3708503614616,502,1020,307
2441,1,4,1532.3808502775416,500,1020,310
2442,1,4,1532.3908501936219,516,1020,315
2443,1,4,1532.4008501097019,523,1020,318
2444,1,4,1532.410850025782,528,1020,323
2445,1,4,1532.4208499418621,538,1020,327
2446,1,4,1532.4308498579423,537,1020,331
2447,1,4,1532.4408497740224,539,1020,339
2448,1,4,1532.4508496901026,533,1020,345
2449,1,4,1532.4608496061826,531,1020,349
2450,1,4,1532.4708495222628,531,1020,355
2451,1,4,1532.4808494383428,529,1020,359
2452,1,4,1532.490849354423,517,1020,365
2453,1,4,1532.5008492705033,517,1020,370
2454,1,4,1532.5108491865833,519,1020,372
2455,1,4,1532.5208491026635,514,1020,377
2456,1,4,1532.5308490187435,515,1020,380
2457,1,4,1532.5408489348238,517,1020,384
2458,1,4,1532.5508488509038,515,1020,387
2459,1,4,1532.560848766984,513,1020,390
2460,1,4,1532.570848683064,516,1020,391
2461,1,4,1532.5808485991442,512,1020,395
2462,1,4,1532.5908485152243,514,1020,394
2463,1,4,1532.6008484313045,518,1020,395
2464,1,4,1532.6108483473845,512,1020,397
2465,1,4,1532.6208482634647,517,1020,403
2466,1,4,1532.630848179545,515,1020,405
2467,1,4,1532.640848095625,514,1020,412
2468,1,4,1532.6508480117052,511,1020,414
2469,1,4,1532.6608479277852,519,1020,418
2470,1,4,1532.6708478438654,511,1020,423
2471,1,4,1532.6808477599454,512,1020,423
2472,1,4,1532.6908476760257,513,1020,425
2473,1,4,1532.7008475921057,510,1020,428
2474,1,4,1532.710847508186,510,1020,426
2475,1,4,1532.720847424266,507,1020,425
2476,1,4,1532.7308473403461,515,1020,427
2477,1,4,1532.7408472564262,513,1020,425
2478,1,4,1532.7508471725064,505,1020,426
2479,1,4,1532.7608470885864,495,1020,425
2480,1,4,1532.7708470046666,502,1020,427
2481,1,4,1532.7808469207466,494,1020,429
2482,1,4,1532.7908468368269,494,1020,431
2483,1,4,1532.800846752907,499,1020,434
2484,1,4,1532.810846668987,504,1020,432
2485,1,4,1532.8208465850673,505,1020,430
2486,1,4,1532.8308465011473,513,1020,429
2487,1,4,1532.8408464172276,524,1020,424
2488,1,4,1532.8508463333076,514,1020,420
2489,1,4,1532.8608462493878,522,1020,418
2490,1,4,1532.8708461654678,515,1020,415
2491,1,4,1532.880846081548,515,1020,414
2492,1,4,1532.890845997628,505,1020,412
2493,1,4,1532.9008459137083,498,1020,410
2494,1,4,1532.9108458297883,465,1020,409
2495,1,4,1532.9208457458685,435,1020,408
2496,1,4,1532.9308456619488,537,1020,406
2497,1,4,1532.9408455780288,609,1020,403
2498,1,4,1532.950845494109,585,1020,403
2499,1,4,1532.960845410189,534,1020,397
2500,1,4,1532.9708453262692,515,1020,394
2501,1,4,1532.9808452423492,494,1020,391
2502,1,4,1532.9908451584295,494,1020,389
2503,1,4,1533.0008450745095,499,1020,388
2504,1,4,1533.0108449905897,493,1020,390
2505,1,4,1533.0208449066697,494,1020,390
2506,1,4,1533.03084482275,494,1020,390
2507,1,4,1533.04084473883,495,1020,393
2508,1,4,1533.0508446549102,492,1020,393
2509,1,4,1533.0608445709902,492,1020,394
2510,1,4,1533.0708444870704,490,1020,396
2511,1,4,1533.0808444031506,492,1020,399
2512,1,4,1533.0908443192307,489,1020,399
2513,1,4,1533.100844235311,486,1020,401
2514,1,4,1533.110844151391,490,1020,406
2515,1,4,1533.1208440674711,483,1020,408
2516,1,4,1533.1308439835511,485,1020,413
2517,1,4,1533.1408438996314,487,1020,421
2518,1,4,1533.1508438157114,496,1020,425
2519,1,4,1533.1608437317916,504,1020,434
2520,1,4,1533.1708436478716,500,1020,439
2521,1,4,1533.1808435639518,509,1020,445
2522,1,4,1533.1908434800318,518,1020,451
2523,1,4,1533.200843396112,530,1020,459
2524,1,4,1533.210843312192,534,1020,464
2525,1,4,1533.2208432282723,536,1020,471
2526,1,4,1533.2308431443525,535,1020,480
2527,1,4,1533.2408430604326,534,1020,491
2528,1,4,1533.2508429765128,522,1020,503
2529,1,4,1533.2608428925928,525,1020,517
2530,1,4,1533.270842808673,524,1020,530
2531,1,4,1533.280842724753,519,1020,543
2532,1,4,1533.2908426408333,517,1020,554
2533,1,4,1533.3008425569133,513,1020,565
2534,1,4,1533.3108424729935,521,1020,576
2535,1,4,1533.3208423890735,513,1020,585
2536,1,4,1533.3308423051537,517,1020,595
2537,1,4,1533.3408422212337,517,1020,604
2538,1,4,1533.350842137314,515,1020,614
2539,1,4,1533.360842053394,516,1020,624
2540,1,4,1533.3708419694742,514,1020,636
2541,1,4,1533.3808418855544,504,1020,645
2542,1,4,1533.3908418016345,504,1020,656
2543,1,4,1533.4008417177147,507,1020,667
2544,1,4,1533.4108416337947,508,1020,678
2545,1,4,1533.420841549875,510,1020,687
2546,1,4,1533.430841465955,513,1020,697
2547,1,4,1533.4408413820352,509,1020,706
2548,1,4,1533.4508412981152,513,1020,715
2549,1,4,1533.4608412141954,512,1020,723
2550,1,4,1533.4708411302754,502,1020,730
2551,1,4,1533.4808410463556,498,1020,736
2552,1,4,1533.4908409624356,500,1020,742
2553,1,4,1533.5008408785159,498,1020,748
2554,1,4,1533.5108407945959,497,1020,755
2555,1,4,1533.520840710676,499,1020,761
2556,1,4,1533.5308406267563,499,1020,767
2557,1,4,1533.5408405428363,496,1020,773
2558,1,4,1533.5508404589166,507,1020,778
2559,1,4,1533.5608403749966,520,1020,783
2560,1,4,1533.5708402910768,511,1020,787
2561,1,4,1533.5808402071568,521,1020,791
2562,1,4,1533.590840123237,518,1020,795
2563,1,4,1533.600840039317,515,1020,800
2564,1,4,1533.6108399553973,504,1020,804
2565,1,4,1533.6208398714773,489,1020,808
2566,1,4,1533.6308397875575,487,1020,812
2567,1,4,1533.6408397036375,443,1020,815
2568,1,4,1533.6508396197178,504,1020,818
2569,1,4,1533.6608395357978,607,1020,820
2570,1,4,1533.670839451878,589,1020,823
2571,1,4,1533.6808393679582,553,1020,824
2572,1,4,1533.6908392840382,518,1020,824
2573,1,4,1533.7008392001185,497,1020,823
2574,1,4,1533.7108391161985,493,1020,822
2575,1,4,1533.7208390322787,492,1020,821
2576,1,4,1533.7308389483587,495,1020,821
2577,1,4,1533.740838864439,490,1020,822
2578,1,4,1533.750838780519,492,1020,822
2579,1,4,1533.7608386965992,488,1020,822
2580,1,4,1533.7708386126792,495,1020,821
2581,1,4,1533.7808385287594,497,1020,820
2582,1,4,1533.7908384448394,495,1020,819
2583,1,4,1533.8008383609197,494,1020,817
2584,1,4,1533.8108382769997,492,1020,815
2585,1,4,1533.82083819308,489,1020,813
2586,1,4,1533.8308381091601,484,1020,811
2587,1,4,1533.8408380252401,482,1020,809
2588,1,4,1533.8508379413204,480,1020,807
2589,1,4,1533.8608378574004,484,1020,804
2590,1,4,1533.8708377734806,492,1020,801
2591,1,4,1533.8808376895606,499,1020,799
2592,1,4,1533.8908376056409,503,1020,796
2593,1,4,1533.9008375217209,514,1020,794
2594,1,4,1533.910837437801,527,1020,792
2595,1,4,1533.920837353881,531,1020,792
2596,1,4,1533.9308372699613,542,1020,792
2597,1,4,1533.9408371860413,539,1020,791
2598,1,4,1533.9508371021216,544,1020,791
2599,1,4,1533.9608370182018,538,1020,791
2600,1,4,1533.9708369342818,534,1020,790
2601,1,4,1533.980836850362,526,1020,788
2602,1,4,1533.990836766442,529,1020,787
2603,1,4,1534.0008366825223,525,1020,784
2604,1,4,1534.0108365986023,522,1020,783
2605,1,4,1534.0208365146825,516,1020,782
2606,1,4,1534.0308364307625,515,1020,782
2607,1,4,1534.0408363468428,515,1020,783
2608,1,4,1534.0508362629228,521,1020,783
2609,1,4,1534.060836179003,520,1020,784
2610,1,4,1534.070836095083,516,1020,785
2611,1,4,1534.0808360111632,519,1020,786
2612,1,4,1534.0908359272432,514,1020,787
2613,1,4,1534.1008358433235,524,1020,787
2614,1,4,1534.1108357594037,522,1020,788
2615,1,4,1534.1208356754837,516,1020,788
2616,1,4,1534.130835591564,507,1020,786
2617,1,4,1534.140835507644,502,1020,785
2618,1,4,1534.1508354237242,504,1020,782
2619,1,4,1534.1608353398042,502,1020,779
2620,1,4,1534.1708352558844,500,1020,776
2621,1,4,1534.1808351719644,507,1020,772
2622,1,4,1534.1908350880447,511,1020,770
2623,1,4,1534.2008350041247,524,1020,766
2624,1,4,1534.210834920205,519,1020,763
2625,1,4,1534.220834836285,520,1020,758
2626,1,4,1534.2308347523651,519,1020,752
2627,1,4,1534.2408346684451,518,1020,744
2628,1,4,1534.2508345845254,512,1020,735
2629,1,4,1534.2608345006056,508,1020,727
2630,1,4,1534.2708344166856,515,1020,716
2631,1,4,1534.2808343327658,481,1020,706
2632,1,4,1534.2908342488458,438,1020,697
2633,1,4,1534.300834164926,534,1020,686
2634,1,4,1534.310834081006,608,1020,676
2635,1,4,1534.3208339970863,572,1020,667
2636,1,4,1534.3308339131663,542,1020,655
2637,1,4,1534.3408338292465,512,1020,643
2638,1,4,1534.3508337453266,497,1020,630
2639,1,4,1534.3608336614068,492,1020,615
2640,1,4,1534.3708335774868,487,1020,603
2641,1,4,1534.380833493567,487,1020,591
2642,1,4,1534.390833409647,488,1020,581
2643,1,4,1534.4008333257273,485,1020,571
2644,1,4,1534.4108332418075,483,1020,562
2645,1,4,1534.4208331578875,488,1020,554
2646,1,4,1534.4308330739677,491,1020,546
2647,1,4,1534.4408329900477,488,1020,539
2648,1,4,1534.450832906128,486,1020,532
2649,1,4,1534.460832822208,482,1020,525
2650,1,4,1534.4708327382882,479,1020,519
2651,1,4,1534.4808326543682,478,1020,513
2652,1,4,1534.4908325704484,472,1020,509
2653,1,4,1534.5008324865285,479,1020,504
2654,1,4,1534.5108324026087,479,1020,501
2655,1,4,1534.5208323186887,484,1020,496
2656,1,4,1534.530832234769,492,1020,493
2657,1,4,1534.540832150849,505,1020,488
2658,1,4,1534.5508320669292,515,1020,485
2659,1,4,1534.5608319830094,521,1020,483
2660,1,4,1534.5708318990894,535,1020,478
2661,1,4,1534.5808318151696,535,1020,473
2662,1,4,1534.5908317312496,530,1020,470
2663,1,4,1534.6008316473299,541,1020,467
2664,1,4,1534.6108315634099,533,1020,465
2665,1,4,1534.62083147949,531,1020,462
2666,1,4,1534.63083139557,533,1020,459
2667,1,4,1534.6408313116503,526,1020,456
2668,1,4,1534.6508312277304,523,1020,454
2669,1,4,1534.6608311438106,521,1020,450
2670,1,4,1534.6708310598906,518,1020,447
2671,1,4,1534.6808309759708,518,1020,445
2672,1,4,1534.6908308920508,518,1020,439
2673,1,4,1534.700830808131,519,1020,437
2674,1,4,1534.7108307242113,515,1020,431
2675,1,4,1534.7208306402913,514,1020,426
2676,1,4,1534.7308305563715,517,1020,423
2677,1,4,1534.7408304724515,511,1020,422
2678,1,4,1534.7508303885318,511,1020,419
2679,1,4,1534.7608303046118,512,1020,419
2680,1,4,1534.770830220692,510,1020,419
2681,1,4,1534.780830136772,502,1020,419
2682,1,4,1534.7908300528522,503,1020,420
2683,1,4,1534.8008299689322,502,1020,418
2684,1,4,1534.8108298850125,502,1020,418
2685,1,4,1534.8208298010925,503,1020,417
2686,1,4,1534.8308297171727,504,1020,417
2687,1,4,1534.8408296332527,511,1020,416
2688,1,4,1534.850829549333,523,1020,416
2689,1,4,1534.8608294654132,515,1020,416
2690,1,4,1534.8708293814932,521,1020,415
2691,1,4,1534.8808292975734,520,1020,416
2692,1,4,1534.8908292136534,517,1020,416
2693,1,4,1534.9008291297337,518,1020,418
2694,1,4,1534.9108290458137,509,1020,420
2695,1,4,1534.920828961894,499,1020,424
2696,1,4,1534.930828877974,458,1020,427
2697,1,4,1534.9408287940541,423,1020,432
2698,1,4,1534.9508287101341,528,1020,436
2699,1,4,1534.9608286262144,602,1020,438
2700,1,4,1534.9708285422944,577,1020,443
2701,1,4,1534.9808284583746,544,1020,445
2702,1,4,1534.9908283744546,510,1020,450
2703,1,4,1535.0008282905349,501,1020,450
2704,1,4,1535.010828206615,496,1020,451
2705,1,4,1535.020828122695,493,1020,456
2706,1,4,1535.0308280387753,497,1020,458
2707,1,4,1535.0408279548553,490,1020,460
2708,1,4,1535.0508278709356,490,1020,461
2709,1,4,1535.0608277870156,492,1020,463
2710,1,4,1535.0708277030958,492,1020,463
2711,1,4,1535.0808276191758,488,1020,465
2712,1,4,1535.090827535256,492,1020,465
2713,1,4,1535.100827451336,493,1020,469
2714,1,4,1535.1108273674163,483,1020,467
2715,1,4,1535.1208272834963,488,1020,468
2716,1,4,1535.1308271995765,482,1020,469
2717,1,4,1535.1408271156565,483,1020,469
2718,1,4,1535.1508270317368,480,1020,470
2719,1,4,1535.160826947817,482,1020,473
2720,1,4,1535.170826863897,491,1020,472
2721,1,4,1535.1808267799772,497,1020,472
2722,1,4,1535.1908266960572,507,1020,476
2723,1,4,1535.2008266121375,515,1020,476
2724,1,4,1535.2108265282175,527,1020,477
2725,1,4,1535.2208264442977,532,1020,479
2726,1,4,1535.2308263603777,536,1020,483
2727,1,4,1535.240826276458,535,1020,484
2728,1,4,1535.250826192538,531,1020,487
2729,1,4,1535.2608261086182,535,1020,490
2730,1,4,1535.2708260246982,526,1020,493
2731,1,4,1535.2808259407784,532,1020,494
2732,1,4,1535.2908258568586,521,1020,496
2733,1,4,1535.3008257729387,523,1020,497
2734,1,4,1535.3108256890189,520,1020,499
2735,1,4,1535.320825605099,520,1020,500
2736,1,4,1535.3308255211791,512,1020,501
2737,1,4,1535.3408254372591,517,1020,502
2738,1,4,1535.3508253533394,514,1020,504
2739,1,4,1535.3608252694194,517,1020,505
2740,1,4,1535.3708251854996,513,1020,505
2741,1,4,1535.3808251015796,510,1020,506
2742,1,4,1535.3908250176598,509,1020,507
2743,1,4,1535.4008249337398,506,1020,508
2744,1,4,1535.41082484982,504,1020,507
2745,1,4,1535.4208247659,504,1020,507
2746,1,4,1535.4308246819803,503,1020,506
2747,1,4,1535.4408245980605,501,1020,508
2748,1,4,1535.4508245141405,510,1020,505
2749,1,4,1535.4608244302208,508,1020,505
2750,1,4,1535.4708243463008,520,1020,507
2751,1,4,1535.480824262381,524,1020,505
2752,1,4,1535.490824178461,520,1020,504
2753,1,4,1535.5008240945413,514,1020,503
2754,1,4,1535.5108240106213,513,1020,505
2755,1,4,1535.5208239267015,517,1020,504
2756,1,4,1535.5308238427815,515,1020,506
2757,1,4,1535.5408237588617,506,1020,503
2758,1,4,1535.5508236749417,491,1020,502
2759,1,4,1535.560823591022,435,1020,504
2760,1,4,1535.570823507102,464,1020,501
2761,1,4,1535.5808234231822,587,1020,500
2762,1,4,1535.5908233392624,595,1020,499
2763,1,4,1535.6008232553424,563,1020,498
2764,1,4,1535.6108231714227,529,1020,496
2765,1,4,1535.6208230875027,499,1020,493
2766,1,4,1535.630823003583,499,1020,487
2767,1,4,1535.640822919663,497,1020,484
2768,1,4,1535.6508228357432,497,1020,481
2769,1,4,1535.6608227518232,493,1020,479
2770,1,4,1535.6708226679034,494,1020,476
2771,1,4,1535.6808225839834,496,1020,475
2772,1,4,1535.6908225000636,492,1020,472
2773,1,4,1535.7008224161436,488,1020,471
2774,1,4,1535.7108223322239,495,1020,467
2775,1,4,1535.7208222483039,491,1020,464
2776,1,4,1535.730822164384,498,1020,462
2777,1,4,1535.7408220804643,490,1020,460
2778,1,4,1535.7508219965443,484,1020,457
2779,1,4,1535.7608219126246,480,1020,456
2780,1,4,1535.7708218287046,477,1020,453
2781,1,4,1535.7808217447848,480,1020,453
2782,1,4,1535.7908216608648,492,1020,449
2783,1,4,1535.800821576945,502,1020,447
2784,1,4,1535.810821493025,505,1020,444
2785,1,4,1535.8208214091053,519,1020,442
2786,1,4,1535.8308213251853,517,1020,442
2787,1,4,1535.8408212412655,536,1020,438
2788,1,4,1535.8508211573455,540,1020,436
2789,1,4,1535.8608210734258,544,1020,436
2790,1,4,1535.8708209895058,540,1020,437
2791,1,4,1535.880820905586,534,1020,439
2792,1,4,1535.8908208216662,527,1020,444
2793,1,4,1535.9008207377462,538,1020,448
2794,1,4,1535.9108206538265,519,1020,453
2795,1,4,1535.9208205699065,506,1020,458
2796,1,4,1535.9308204859867,516,1020,463
2797,1,4,1535.9408204020667,527,1020,467
2798,1,4,1535.950820318147,522,1020,474
2799,1,4,1535.960820234227,521,1020,476
2800,1,4,1535.9708201503072,520,1020,479
2801,1,4,1535.9808200663872,516,1020,482
2802,1,4,1535.9908199824674,517,1020,487
2803,1,4,1536.0008198985474,515,1020,489
2804,1,4,1536.0108198146277,513,1020,491
2805,1,4,1536.0208197307077,507,1020,492
2806,1,4,1536.030819646788,512,1020,492
2807,1,4,1536.0408195628681,519,1020,493
2808,1,4,1536.0508194789481,516,1020,494
2809,1,4,1536.0608193950284,512,1020,493
2810,1,4,1536.0708193111084,512,1020,493
2811,1,4,1536.0808192271886,507,1020,493
2812,1,4,1536.0908191432686,505,1020,493
2813,1,4,1536.1008190593489,500,1020,492
2814,1,4,1536.1108189754289,500,1020,491
2815,1,4,1536.120818891509,495,1020,489
2816,1,4,1536.130818807589,508,1020,490
2817,1,4,1536.1408187236693,502,1020,486
2818,1,4,1536.1508186397493,502,1020,485
2819,1,4,1536.1608185558296,503,1020,484
2820,1,4,1536.1708184719096,515,1020,483
2821,1,4,1536.1808183879898,520,1020,482
2822,1,4,1536.19081830407,517,1020,480
2823,1,4,1536.20081822015,524,1020,480
2824,1,4,1536.2108181362303,510,1020,476
2825,1,4,1536.2208180523103,521,1020,474
2826,1,4,1536.2308179683905,512,1020,472
2827,1,4,1536.2408178844705,504,1020,470
2828,1,4,1536.2508178005507,485,1020,469
2829,1,4,1536.2608177166308,445,1020,469
2830,1,4,1536.270817632711,444,1020,468
2831,1,4,1536.280817548791,569,1020,471
2832,1,4,1536.2908174648712,604,1020,470
2833,1,4,1536.3008173809512,561,1020,469
2834,1,4,1536.3108172970315,527,1020,467
2835,1,4,1536.3208172131115,505,1020,463
2836,1,4,1536.3308171291917,504,1020,461
2837,1,4,1536.340817045272,510,1020,459
2838,1,4,1536.350816961352,496,1020,455
2839,1,4,1536.3608168774322,495,1020,455
2840,1,4,1536.3708167935122,492,1020,454
2841,1,4,1536.3808167095924,492,1020,453
2842,1,4,1536.3908166256724,491,1020,453
2843,1,4,1536.4008165417526,493,1020,454
2844,1,4,1536.4108164578327,497,1020,453
2845,1,4,1536.4208163739129,500,1020,453
2846,1,4,1536.430816289993,487,1020,453
2847,1,4,1536.4408162060731,490,1020,452
2848,1,4,1536.4508161221531,488,1020,452
2849,1,4,1536.4608160382334,491,1020,453
2850,1,4,1536.4708159543134,495,1020,453
2851,1,4,1536.4808158703936,495,1020,453
2852,1,4,1536.4908157864738,497,1020,454
2853,1,4,1536.5008157025538,493,1020,454
2854,1,4,1536.510815618634,489,1020,455
2855,1,4,1536.520815534714,510,1020,455
2856,1,4,1536.5308154507943,520,1020,457
2857,1,4,1536.5408153668743,592,1020,458
2858,1,4,1536.5508152829545,547,1020,458
2859,1,4,1536.5608151990346,528,1020,460
2860,1,4,1536.5708151151148,509,1020,465
2861,1,4,1536.5808150311948,531,1020,467
2862,1,4,1536.590814947275,529,1020,472
2863,1,4,1536.600814863355,528,1020,477
2864,1,4,1536.6108147794353,527,1020,481
2865,1,4,1536.6208146955155,531,1020,484
2866,1,4,1536.6308146115955,544,1020,485
2867,1,4,1536.6408145276757,549,1020,485
2868,1,4,1536.6508144437557,511,1020,484
2869,1,4,1536.660814359836,496,1020,482
2870,1,4,1536.670814275916,501,1020,480
2871,1,4,1536.6808141919962,505,1020,479
2872,1,4,1536.6908141080762,500,1020,476
2873,1,4,1536.7008140241564,520,1020,474
2874,1,4,1536.7108139402364,509,1020,475
2875,1,4,1536.7208138563167,513,1020,472
2876,1,4,1536.7308137723967,513,1020,472
2877,1,4,1536.740813688477,525,1020,472
2878,1,4,1536.750813604557,504,1020,473
2879,1,4,1536.7608135206372,505,1020,474
2880,1,4,1536.7708134367174,505,1020,476
2881,1,4,1536.7808133527974,508,1020,480
2882,1,4,1536.7908132688776,507,1020,484
2883,1,4,1536.8008131849576,509,1020,485
2884,1,4,1536.8108131010379,494,1020,488
2885,1,4,1536.8208130171179,504,1020,490
2886,1,4,1536.830812933198,494,1020,492
2887,1,4,1536.840812849278,489,1020,494
2888,1,4,1536.8508127653583,503,1020,496
2889,1,4,1536.8608126814383,499,1020,498
2890,1,4,1536.8708125975186,512,1020,498
2891,1,4,1536.8808125135986,517,1020,499
2892,1,4,1536.8908124296788,512,1020,500
2893,1,4,1536.9008123457588,516,1020,500
2894,1,4,1536.910812261839,519,1020,501
2895,1,4,1536.9208121779193,510,1020,504
2896,1,4,1536.9308120939993,516,1020,505
2897,1,4,1536.9408120100795,505,1020,505
2898,1,4,1536.9508119261595,497,1020,505
2899,1,4,1536.9608118422398,448,1020,506
2900,1,4,1536.9708117583198,432,1020,505
2901,1,4,1536.9808116744,547,1020,504
2902,1,4,1536.99081159048,601,1020,504
2903,1,4,1537.0008115065602,579,1020,504
2904,1,4,1537.0108114226402,531,1020,503
2905,1,4,1537.0208113387205,512,1020,501
2906,1,4,1537.0308112548005,503,1020,500
2907,1,4,1537.0408111708807,494,1020,499
2908,1,4,1537.0508110869607,484,1020,499
2909,1,4,1537.060811003041,499,1020,500
2910,1,4,1537.0708109191212,490,1020,500
2911,1,4,1537.0808108352012,500,1020,500
2912,1,4,1537.0908107512814,498,1020,498
2913,1,4,1537.1008106673614,496,1020,496
2914,1,4,1537.1108105834417,500,1020,494
2915,1,4,1537.1208104995217,484,1020,491
2916,1,4,1537.130810415602,496,1020,492
2917,1,4,1537.140810331682,484,1020,489
2918,1,4,1537.1508102477621,483,1020,487
2919,1,4,1537.1608101638421,485,1020,484
2920,1,4,1537.1708100799224,481,1020,481
2921,1,4,1537.1808099960024,488,1020,478
2922,1,4,1537.1908099120826,481,1020,472
2923,1,4,1537.2008098281626,496,1020,468
2924,1,4,1537.2108097442429,513,1020,464
2925,1,4,1537.220809660323,507,1020,460
2926,1,4,1537.230809576403,521,1020,454
2927,1,4,1537.2408094924833,524,1020,451
2928,1,4,1537.2508094085633,535,1020,447
2929,1,4,1537.2608093246436,536,1020,444
2930,1,4,1537.2708092407236,541,1020,440
2931,1,4,1537.2808091568038,547,1020,438
2932,1,4,1537.2908090728838,527,1020,437
2933,1,4,1537.300808988964,535,1020,437
2934,1,4,1537.310808905044,532,1020,435
2935,1,4,1537.3208088211243,527,1020,434
2936,1,4,1537.3308087372043,523,1020,433
2937,1,4,1537.3408086532845,527,1020,433
2938,1,4,1537.3508085693645,514,1020,432
2939,1,4,1537.3608084854447,513,1020,432
2940,1,4,1537.370808401525,512,1020,432
2941,1,4,1537.380808317605,517,1020,431
2942,1,4,1537.3908082336852,517,1020,433
2943,1,4,1537.4008081497652,518,1020,432
2944,1,4,1537.4108080658455,512,1020,431
2945,1,4,1537.4208079819255,518,1020,431
2946,1,4,1537.4308078980057,518,1020,433
2947,1,4,1537.4408078140857,512,1020,430
2948,1,4,1537.450807730166,518,1020,430
2949,1,4,1537.460807646246,514,1020,430
2950,1,4,1537.4708075623262,508,1020,430
2951,1,4,1537.4808074784062,513,1020,430
2952,1,4,1537.4908073944864,513,1020,430
2953,1,4,1537.5008073105664,515,1020,432
2954,1,4,1537.5108072266466,506,1020,431
2955,1,4,1537.5208071427269,510,1020,432
2956,1,4,1537.5308070588069,513,1020,433
2957,1,4,1537.5408069748871,508,1020,431
2958,1,4,1537.5508068909671,515,1020,431
2959,1,4,1537.5608068070474,496,1020,431
2960,1,4,1537.5708067231274,506,1020,431
2961,1,4,1537.5808066392076,501,1020,431
2962,1,4,1537.5908065552876,502,1020,431
2963,1,4,1537.6008064713678,505,1020,432
2964,1,4,1537.6108063874478,499,1020,434
2965,1,4,1537.620806303528,507,1020,434
2966,1,4,1537.630806219608,517,1020,435
2967,1,4,1537.6408061356883,522,1020,434
2968,1,4,1537.6508060517685,508,1020,435
2969,1,4,1537.6608059678485,524,1020,434
2970,1,4,1537.6708058839288,520,1020,437
2971,1,4,1537.6808058000088,518,1020,437
