,session,participant,time,ECG,EDA,Respiration
0,3,2,82754.38775124284,0,0,553
1,3,2,82754.39775114892,0,0,550
2,3,2,82754.40775105501,0,0,548
3,3,2,82754.41775096109,0,0,546
4,3,2,82754.42775086718,0,0,545
5,3,2,82754.43775077326,0,0,543
6,3,2,82754.44775067933,0,0,541
7,3,2,82754.45775058542,0,0,540
8,3,2,82754.4677504915,0,0,538
9,3,2,82754.4777503976,0,0,536
10,3,2,82754.48775030367,0,0,535
11,3,2,82754.49775020976,0,0,534
12,3,2,82754.50775011584,0,0,532
13,3,2,82754.51775002191,0,0,530
14,3,2,82754.527749928,0,0,528
15,3,2,82754.53774983408,0,0,525
16,3,2,82754.54774974017,0,0,522
17,3,2,82754.55774964625,0,0,519
18,3,2,82754.56774955233,0,0,516
19,3,2,82754.57774945842,0,0,512
20,3,2,82754.5877493645,0,0,509
21,3,2,82754.59774927059,0,0,505
22,3,2,82754.60774917666,0,0,502
23,3,2,82754.61774908274,0,0,497
24,3,2,82754.62774898883,0,0,493
25,3,2,82754.63774889491,0,0,489
26,3,2,82754.647748801,0,0,484
27,3,2,82754.65774870708,0,0,480
28,3,2,82754.66774861317,0,0,475
29,3,2,82754.67774851924,0,0,470
30,3,2,82754.68774842532,0,0,465
31,3,2,82754.69774833141,0,0,460
32,3,2,82754.70774823749,0,0,453
33,3,2,82754.71774814358,0,0,448
34,3,2,82754.72774804966,0,0,442
35,3,2,82754.73774795573,0,0,436
36,3,2,82754.74774786182,0,0,432
37,3,2,82754.7577477679,0,0,427
38,3,2,82754.76774767399,0,0,423
39,3,2,82754.77774758007,0,0,421
40,3,2,82754.78774748616,0,0,418
41,3,2,82754.79774739224,0,0,415
42,3,2,82754.80774729831,0,0,414
43,3,2,82754.8177472044,0,0,411
44,3,2,82754.82774711048,0,0,408
45,3,2,82754.83774701657,0,0,406
46,3,2,82754.84774692265,0,0,403
47,3,2,82754.85774682873,0,0,399
48,3,2,82754.86774673482,0,0,396
49,3,2,82754.8777466409,0,0,392
50,3,2,82754.88774654698,0,0,390
51,3,2,82754.89774645306,0,0,387
52,3,2,82754.90774635914,0,0,384
53,3,2,82754.91774626523,0,0,383
54,3,2,82754.9277461713,0,0,382
55,3,2,82754.9377460774,0,0,383
56,3,2,82754.94774598347,0,0,385
57,3,2,82754.95774588957,0,0,387
58,3,2,82754.96774579564,0,0,393
59,3,2,82754.97774570172,0,0,398
60,3,2,82754.98774560781,0,0,403
61,3,2,82754.99774551389,0,0,409
62,3,2,82755.00774541998,0,0,415
63,3,2,82755.01774532605,0,0,419
64,3,2,82755.02774523213,0,0,424
65,3,2,82755.03774513822,0,0,428
66,3,2,82755.0477450443,0,0,432
67,3,2,82755.05774495039,0,0,435
68,3,2,82755.06774485647,0,0,438
69,3,2,82755.07774476254,0,0,440
70,3,2,82755.08774466864,0,0,440
71,3,2,82755.09774457471,0,0,440
72,3,2,82755.1077444808,0,0,441
73,3,2,82755.11774438688,0,0,442
74,3,2,82755.12774429297,0,0,444
75,3,2,82755.13774419905,0,0,446
76,3,2,82755.14774410512,0,0,449
77,3,2,82755.15774401122,0,0,451
78,3,2,82755.16774391729,0,0,455
79,3,2,82755.17774382338,0,0,459
80,3,2,82755.18774372946,0,0,460
81,3,2,82755.19774363554,0,0,462
82,3,2,82755.20774354163,0,0,461
83,3,2,82755.2177434477,0,0,460
84,3,2,82755.2277433538,0,0,459
85,3,2,82755.23774325987,0,0,459
86,3,2,82755.24774316595,0,0,459
87,3,2,82755.25774307204,0,0,458
88,3,2,82755.26774297812,0,0,456
89,3,2,82755.27774288421,0,0,454
90,3,2,82755.28774279029,0,0,452
91,3,2,82755.29774269638,0,0,450
92,3,2,82755.30774260245,0,0,450
93,3,2,82755.31774250853,0,0,450
94,3,2,82755.32774241462,0,0,452
95,3,2,82755.3377423207,0,0,455
96,3,2,82755.34774222679,0,0,461
97,3,2,82755.35774213287,0,0,467
98,3,2,82755.36774203894,0,0,474
99,3,2,82755.37774194503,0,0,481
100,3,2,82755.38774185111,0,0,489
101,3,2,82755.3977417572,0,0,497
102,3,2,82755.40774166328,0,0,504
103,3,2,82755.41774156936,0,0,511
104,3,2,82755.42774147545,0,0,516
105,3,2,82755.43774138152,0,0,522
106,3,2,82755.44774128761,1,0,526
107,3,2,82755.45774119369,0,0,529
108,3,2,82755.46774109978,0,0,531
109,3,2,82755.47774100586,0,0,532
110,3,2,82755.48774091194,0,0,531
111,3,2,82755.49774081803,0,0,528
112,3,2,82755.5077407241,0,0,523
113,3,2,82755.5177406302,0,0,518
114,3,2,82755.52774053627,0,0,512
115,3,2,82755.53774044235,0,0,508
116,3,2,82755.54774034844,0,0,502
117,3,2,82755.55774025452,0,0,498
118,3,2,82755.56774016061,0,0,495
119,3,2,82755.57774006668,0,0,495
120,3,2,82755.58773997278,0,0,493
121,3,2,82755.59773987885,0,0,493
122,3,2,82755.60773978493,0,0,492
123,3,2,82755.61773969102,0,0,492
124,3,2,82755.6277395971,1,0,491
125,3,2,82755.63773950319,0,0,490
126,3,2,82755.64773940927,0,0,489
127,3,2,82755.65773931534,0,0,489
128,3,2,82755.66773922143,0,0,489
129,3,2,82755.67773912751,0,0,491
130,3,2,82755.6877390336,0,0,491
131,3,2,82755.69773893968,0,0,492
132,3,2,82755.70773884575,0,0,493
133,3,2,82755.71773875185,1,0,492
134,3,2,82755.72773865792,0,0,494
135,3,2,82755.73773856401,0,0,494
136,3,2,82755.74773847009,0,0,494
137,3,2,82755.75773837618,0,0,494
138,3,2,82755.76773828226,0,0,494
139,3,2,82755.77773818834,0,0,495
140,3,2,82755.78773809443,0,0,496
141,3,2,82755.7977380005,0,0,497
142,3,2,82755.8077379066,0,0,498
143,3,2,82755.81773781267,0,0,500
144,3,2,82755.82773771875,0,0,501
145,3,2,82755.83773762484,0,0,502
146,3,2,82755.84773753092,0,0,503
147,3,2,82755.857737437,0,0,504
148,3,2,82755.86773734308,0,0,504
149,3,2,82755.87773724916,0,0,506
150,3,2,82755.88773715525,1,0,508
151,3,2,82755.89773706133,0,0,510
152,3,2,82755.90773696742,0,0,512
153,3,2,82755.9177368735,0,0,512
154,3,2,82755.92773677959,0,0,512
155,3,2,82755.93773668566,0,0,509
156,3,2,82755.94773659174,0,0,507
157,3,2,82755.95773649783,0,0,503
158,3,2,82755.96773640391,0,0,498
159,3,2,82755.97773631,0,0,492
160,3,2,82755.98773621608,0,0,484
161,3,2,82755.99773612215,0,0,477
162,3,2,82756.00773602824,0,0,470
163,3,2,82756.01773593432,0,0,464
164,3,2,82756.02773584041,0,0,458
165,3,2,82756.03773574649,0,0,454
166,3,2,82756.04773565257,0,0,450
167,3,2,82756.05773555866,0,0,448
168,3,2,82756.06773546473,0,0,447
169,3,2,82756.07773537083,0,0,447
170,3,2,82756.0877352769,0,0,448
171,3,2,82756.097735183,0,0,448
172,3,2,82756.10773508907,0,0,447
173,3,2,82756.11773499515,0,0,445
174,3,2,82756.12773490124,0,0,442
175,3,2,82756.13773480731,0,0,440
176,3,2,82756.1477347134,0,0,439
177,3,2,82756.15773461948,0,0,440
178,3,2,82756.16773452556,0,0,441
179,3,2,82756.17773443165,0,0,444
180,3,2,82756.18773433773,0,0,448
181,3,2,82756.19773424382,0,0,452
182,3,2,82756.2077341499,0,0,456
183,3,2,82756.21773405599,0,0,460
184,3,2,82756.22773396206,0,0,462
185,3,2,82756.23773386814,0,0,463
186,3,2,82756.24773377423,0,0,463
187,3,2,82756.25773368031,0,0,460
188,3,2,82756.2677335864,0,0,458
189,3,2,82756.27773349248,0,0,453
190,3,2,82756.28773339855,0,0,448
191,3,2,82756.29773330464,0,0,443
192,3,2,82756.30773321072,0,0,438
193,3,2,82756.31773311681,0,0,432
194,3,2,82756.32773302289,0,0,427
195,3,2,82756.33773292897,0,0,422
196,3,2,82756.34773283506,0,0,417
197,3,2,82756.35773274113,0,0,413
198,3,2,82756.36773264722,0,0,409
199,3,2,82756.3777325533,0,0,407
200,3,2,82756.38773245939,0,0,404
201,3,2,82756.39773236547,0,0,402
202,3,2,82756.40773227155,0,0,401
203,3,2,82756.41773217764,0,0,398
204,3,2,82756.42773208371,0,0,396
205,3,2,82756.4377319898,0,0,394
206,3,2,82756.44773189588,0,0,392
207,3,2,82756.45773180196,0,0,390
208,3,2,82756.46773170805,0,0,387
209,3,2,82756.47773161413,0,0,385
210,3,2,82756.48773152022,0,0,383
211,3,2,82756.4977314263,0,0,381
212,3,2,82756.50773133237,0,0,379
213,3,2,82756.51773123846,0,0,377
214,3,2,82756.52773114454,0,0,376
215,3,2,82756.53773105063,0,0,376
216,3,2,82756.5477309567,0,0,376
217,3,2,82756.5577308628,0,0,376
218,3,2,82756.56773076887,0,0,375
219,3,2,82756.57773067495,0,0,375
220,3,2,82756.58773058104,0,0,375
221,3,2,82756.59773048712,0,0,374
222,3,2,82756.60773039321,0,0,373
223,3,2,82756.61773029929,0,0,373
224,3,2,82756.62773020536,0,0,372
225,3,2,82756.63773011146,0,0,373
226,3,2,82756.64773001753,0,0,372
227,3,2,82756.65772992362,0,0,373
228,3,2,82756.6677298297,0,0,373
229,3,2,82756.67772973578,0,0,372
230,3,2,82756.68772964187,0,0,372
231,3,2,82756.69772954794,0,0,371
232,3,2,82756.70772945404,0,0,370
233,3,2,82756.71772936011,0,0,370
234,3,2,82756.7277292662,0,0,370
235,3,2,82756.73772917228,0,0,370
236,3,2,82756.74772907836,0,0,371
237,3,2,82756.75772898445,0,0,371
238,3,2,82756.76772889053,0,0,371
239,3,2,82756.77772879662,0,0,371
240,3,2,82756.7877287027,0,0,371
241,3,2,82756.79772860877,0,0,370
242,3,2,82756.80772851486,0,0,370
243,3,2,82756.81772842094,0,0,372
244,3,2,82756.82772832703,0,0,373
245,3,2,82756.8377282331,0,0,374
246,3,2,82756.8477281392,0,0,375
247,3,2,82756.85772804527,0,0,376
248,3,2,82756.86772795135,0,0,378
249,3,2,82756.87772785744,0,0,380
250,3,2,82756.88772776352,0,0,381
251,3,2,82756.89772766961,0,0,383
252,3,2,82756.90772757569,0,0,385
253,3,2,82756.91772748176,0,0,387
254,3,2,82756.92772738785,0,0,390
255,3,2,82756.93772729393,0,0,393
256,3,2,82756.94772720002,0,0,395
257,3,2,82756.9577271061,0,0,398
258,3,2,82756.96772701218,0,0,399
259,3,2,82756.97772691827,0,0,401
260,3,2,82756.98772682434,0,0,403
261,3,2,82756.99772673043,0,0,404
262,3,2,82757.00772663651,0,0,404
263,3,2,82757.0177265426,0,0,404
264,3,2,82757.02772644868,0,0,403
265,3,2,82757.03772635476,0,0,402
266,3,2,82757.04772626085,0,0,401
267,3,2,82757.05772616692,0,0,400
268,3,2,82757.06772607302,0,0,399
269,3,2,82757.07772597909,0,0,398
270,3,2,82757.08772588517,0,0,398
271,3,2,82757.09772579126,0,0,398
272,3,2,82757.10772569734,0,0,397
273,3,2,82757.11772560343,0,0,398
274,3,2,82757.1277255095,0,0,397
275,3,2,82757.13772541558,0,0,397
276,3,2,82757.14772532167,0,0,396
277,3,2,82757.15772522775,0,0,395
278,3,2,82757.16772513384,0,0,394
279,3,2,82757.17772503992,0,0,393
280,3,2,82757.18772494601,0,0,393
281,3,2,82757.19772485209,0,0,392
282,3,2,82757.20772475816,0,0,392
283,3,2,82757.21772466425,0,0,392
284,3,2,82757.22772457033,0,0,392
285,3,2,82757.23772447642,0,0,393
286,3,2,82757.2477243825,0,0,392
287,3,2,82757.25772428857,0,0,391
288,3,2,82757.26772419467,0,0,391
289,3,2,82757.27772410074,0,0,390
290,3,2,82757.28772400683,0,0,391
291,3,2,82757.29772391291,0,0,391
292,3,2,82757.30772381899,0,0,393
293,3,2,82757.31772372508,0,0,394
294,3,2,82757.32772363116,0,0,395
295,3,2,82757.33772353725,0,0,396
296,3,2,82757.34772344332,0,0,397
297,3,2,82757.35772334941,0,0,397
298,3,2,82757.36772325549,0,0,397
299,3,2,82757.37772316157,0,0,396
300,3,2,82757.38772306766,0,0,395
301,3,2,82757.39772297374,0,0,394
302,3,2,82757.40772287983,0,0,393
303,3,2,82757.4177227859,0,0,392
304,3,2,82757.42772269198,0,0,391
305,3,2,82757.43772259807,0,0,393
306,3,2,82757.44772250415,0,0,396
307,3,2,82757.45772241024,0,0,399
308,3,2,82757.46772231632,0,0,401
309,3,2,82757.4777222224,0,0,404
310,3,2,82757.48772212848,0,0,405
311,3,2,82757.49772203456,0,0,406
312,3,2,82757.50772194065,0,0,407
313,3,2,82757.51772184673,0,0,408
314,3,2,82757.52772175282,0,0,408
315,3,2,82757.5377216589,0,0,410
316,3,2,82757.54772156497,0,0,411
317,3,2,82757.55772147106,0,0,411
318,3,2,82757.56772137714,0,0,413
319,3,2,82757.57772128323,0,0,414
320,3,2,82757.58772118931,0,0,415
321,3,2,82757.59772109539,0,0,414
322,3,2,82757.60772100148,0,0,415
323,3,2,82757.61772090755,0,0,415
324,3,2,82757.62772081365,0,0,415
325,3,2,82757.63772071972,0,0,414
326,3,2,82757.64772062581,0,0,414
327,3,2,82757.65772053189,0,0,413
328,3,2,82757.66772043797,0,0,413
329,3,2,82757.67772034406,0,0,413
330,3,2,82757.68772025013,0,0,412
331,3,2,82757.69772015623,0,0,412
332,3,2,82757.7077200623,0,0,412
333,3,2,82757.71771996838,0,0,412
334,3,2,82757.72771987447,0,0,412
335,3,2,82757.73771978055,0,0,412
336,3,2,82757.74771968664,0,0,411
337,3,2,82757.75771959272,0,0,411
338,3,2,82757.76771949879,0,0,410
339,3,2,82757.77771940488,0,0,410
340,3,2,82757.78771931096,0,0,409
341,3,2,82757.79771921705,0,0,408
342,3,2,82757.80771912313,0,0,407
343,3,2,82757.81771902922,0,0,407
344,3,2,82757.8277189353,0,0,406
345,3,2,82757.83771884137,0,0,407
346,3,2,82757.84771874746,0,0,406
347,3,2,82757.85771865354,0,0,407
348,3,2,82757.86771855963,0,0,407
349,3,2,82757.87771846571,0,0,407
350,3,2,82757.88771837179,0,0,407
351,3,2,82757.89771827788,0,0,405
352,3,2,82757.90771818395,0,0,403
353,3,2,82757.91771809004,0,0,401
354,3,2,82757.92771799612,0,0,401
355,3,2,82757.9377179022,0,0,399
356,3,2,82757.94771780829,0,0,401
357,3,2,82757.95771771437,0,0,402
358,3,2,82757.96771762046,0,0,405
359,3,2,82757.97771752653,0,0,408
360,3,2,82757.98771743262,0,0,413
361,3,2,82757.9977173387,0,0,418
362,3,2,82758.00771724478,0,0,423
363,3,2,82758.01771715087,0,0,429
364,3,2,82758.02771705695,0,0,434
365,3,2,82758.03771696304,0,0,440
366,3,2,82758.04771686911,0,0,446
367,3,2,82758.05771677519,0,0,451
368,3,2,82758.06771668128,0,0,455
369,3,2,82758.07771658736,0,0,457
370,3,2,82758.08771649345,0,0,458
371,3,2,82758.09771639953,0,0,456
372,3,2,82758.1077163056,0,0,453
373,3,2,82758.1177162117,0,0,447
374,3,2,82758.12771611777,0,0,440
375,3,2,82758.13771602386,0,0,432
376,3,2,82758.14771592994,0,0,423
377,3,2,82758.15771583603,0,0,413
378,3,2,82758.1677157421,0,0,401
379,3,2,82758.17771564818,0,0,385
380,3,2,82758.18771555428,0,0,368
381,3,2,82758.19771546035,0,0,351
382,3,2,82758.20771536644,0,0,334
383,3,2,82758.21771527252,0,0,316
384,3,2,82758.2277151786,0,0,298
385,3,2,82758.23771508469,0,0,280
386,3,2,82758.24771499076,0,0,263
387,3,2,82758.25771489686,0,0,248
388,3,2,82758.26771480293,0,0,233
389,3,2,82758.27771470902,0,0,220
390,3,2,82758.2877146151,0,0,207
391,3,2,82758.29771452118,0,0,195
392,3,2,82758.30771442727,0,0,183
393,3,2,82758.31771433335,0,0,173
394,3,2,82758.32771423944,0,0,162
395,3,2,82758.33771414551,0,0,153
396,3,2,82758.34771405159,0,0,143
397,3,2,82758.35771395768,0,0,135
398,3,2,82758.36771386376,0,0,127
399,3,2,82758.37771376985,0,0,119
400,3,2,82758.38771367593,0,0,112
401,3,2,82758.397713582,0,0,106
402,3,2,82758.4077134881,0,0,99
403,3,2,82758.41771339417,0,0,94
404,3,2,82758.42771330026,0,0,88
405,3,2,82758.43771320634,0,0,83
406,3,2,82758.44771311243,0,0,78
407,3,2,82758.4577130185,0,0,73
408,3,2,82758.46771292458,0,0,68
409,3,2,82758.47771283067,0,0,65
410,3,2,82758.48771273675,0,0,60
411,3,2,82758.49771264284,0,0,57
412,3,2,82758.50771254892,0,0,54
413,3,2,82758.517712455,0,0,51
414,3,2,82758.52771236109,0,0,47
415,3,2,82758.53771226716,0,0,45
416,3,2,82758.54771217325,0,0,42
417,3,2,82758.55771207933,0,0,40
418,3,2,82758.56771198541,0,0,39
419,3,2,82758.5777118915,0,0,39
420,3,2,82758.58771179758,0,0,42
421,3,2,82758.59771170367,0,0,45
422,3,2,82758.60771160974,0,0,52
423,3,2,82758.61771151584,0,0,60
424,3,2,82758.62771142191,0,0,71
425,3,2,82758.63771132799,0,0,82
426,3,2,82758.64771123408,0,0,94
427,3,2,82758.65771114016,0,0,108
428,3,2,82758.66771104625,0,0,120
429,3,2,82758.67771095232,0,0,133
430,3,2,82758.6877108584,0,0,145
431,3,2,82758.69771076449,0,0,157
432,3,2,82758.70771067057,0,0,168
433,3,2,82758.71771057666,0,0,177
434,3,2,82758.72771048274,0,0,186
435,3,2,82758.73771038881,0,0,194
436,3,2,82758.7477102949,0,0,201
437,3,2,82758.75771020098,0,0,207
438,3,2,82758.76771010707,0,0,214
439,3,2,82758.77771001315,0,0,220
440,3,2,82758.78770991924,0,0,225
441,3,2,82758.79770982532,0,0,228
442,3,2,82758.8077097314,0,0,231
443,3,2,82758.81770963749,0,0,235
444,3,2,82758.82770954356,0,0,237
445,3,2,82758.83770944965,0,0,240
446,3,2,82758.84770935573,0,0,242
447,3,2,82758.8577092618,0,0,245
448,3,2,82758.8677091679,0,0,249
449,3,2,82758.87770907397,0,0,254
450,3,2,82758.88770898007,0,0,258
451,3,2,82758.89770888614,0,0,263
452,3,2,82758.90770879222,0,0,269
453,3,2,82758.91770869831,0,0,275
454,3,2,82758.92770860439,0,0,282
455,3,2,82758.93770851048,0,0,288
456,3,2,82758.94770841656,0,0,295
457,3,2,82758.95770832265,0,0,304
458,3,2,82758.96770822872,0,0,312
459,3,2,82758.9777081348,0,0,321
460,3,2,82758.98770804089,0,0,329
461,3,2,82758.99770794697,0,0,339
462,3,2,82759.00770785306,0,0,349
463,3,2,82759.01770775914,0,0,358
464,3,2,82759.02770766521,0,0,367
465,3,2,82759.0377075713,0,0,375
466,3,2,82759.04770747738,0,0,382
467,3,2,82759.05770738347,0,0,387
468,3,2,82759.06770728955,0,0,392
469,3,2,82759.07770719564,0,0,397
470,3,2,82759.08770710172,0,0,400
471,3,2,82759.0977070078,0,0,403
472,3,2,82759.10770691388,0,0,407
473,3,2,82759.11770681996,0,0,411
474,3,2,82759.12770672605,0,0,415
475,3,2,82759.13770663213,0,0,419
476,3,2,82759.1477065382,0,0,423
477,3,2,82759.1577064443,0,0,430
478,3,2,82759.16770635037,0,0,438
479,3,2,82759.17770625647,0,0,447
480,3,2,82759.18770616254,0,0,457
481,3,2,82759.19770606862,0,0,469
482,3,2,82759.20770597471,0,0,482
483,3,2,82759.21770588079,0,0,495
484,3,2,82759.22770578688,0,0,511
485,3,2,82759.23770569295,0,0,527
486,3,2,82759.24770559905,0,0,543
487,3,2,82759.25770550512,0,0,561
488,3,2,82759.2677054112,0,0,579
489,3,2,82759.27770531729,0,0,597
490,3,2,82759.28770522337,0,0,615
491,3,2,82759.29770512946,0,0,632
492,3,2,82759.30770503554,0,0,652
493,3,2,82759.31770494161,0,0,671
494,3,2,82759.3277048477,0,0,690
495,3,2,82759.33770475378,0,0,709
496,3,2,82759.34770465987,0,0,728
497,3,2,82759.35770456595,0,0,745
498,3,2,82759.36770447202,0,0,761
499,3,2,82759.37770437812,0,0,776
500,3,2,82759.38770428419,0,0,790
501,3,2,82759.39770419028,0,0,803
502,3,2,82759.40770409636,0,0,816
503,3,2,82759.41770400245,0,0,828
504,3,2,82759.42770390853,0,0,838
505,3,2,82759.4377038146,0,0,849
506,3,2,82759.4477037207,0,0,858
507,3,2,82759.45770362677,0,0,867
508,3,2,82759.46770353286,0,0,874
509,3,2,82759.47770343894,0,0,881
510,3,2,82759.48770334502,0,0,887
511,3,2,82759.49770325111,0,0,892
512,3,2,82759.50770315719,0,0,896
513,3,2,82759.51770306328,0,0,896
514,3,2,82759.52770296935,0,0,896
515,3,2,82759.53770287543,0,0,892
516,3,2,82759.54770278152,0,0,887
517,3,2,82759.5577026876,0,0,878
518,3,2,82759.56770259369,0,0,867
519,3,2,82759.57770249977,0,0,856
520,3,2,82759.58770240586,0,0,843
521,3,2,82759.59770231193,0,0,828
522,3,2,82759.60770221801,0,0,813
523,3,2,82759.6177021241,0,0,797
524,3,2,82759.62770203018,0,0,781
525,3,2,82759.63770193627,0,0,765
526,3,2,82759.64770184235,0,0,750
527,3,2,82759.65770174842,0,0,735
528,3,2,82759.66770165451,0,0,720
529,3,2,82759.67770156059,0,0,708
530,3,2,82759.68770146668,0,0,697
531,3,2,82759.69770137276,0,0,688
532,3,2,82759.70770127885,0,0,682
533,3,2,82759.71770118493,0,0,679
534,3,2,82759.727701091,0,0,676
535,3,2,82759.7377009971,0,0,675
536,3,2,82759.74770090317,0,0,675
537,3,2,82759.75770080926,0,0,677
538,3,2,82759.76770071534,0,0,680
539,3,2,82759.77770062142,1,0,683
540,3,2,82759.78770052751,0,0,687
541,3,2,82759.79770043358,0,0,692
542,3,2,82759.80770033968,0,0,697
543,3,2,82759.81770024575,0,0,704
544,3,2,82759.82770015183,0,0,709
545,3,2,82759.83770005792,0,0,715
546,3,2,82759.847699964,0,0,722
547,3,2,82759.85769987009,0,0,729
548,3,2,82759.86769977616,0,0,736
549,3,2,82759.87769968226,0,0,743
550,3,2,82759.88769958833,0,0,749
551,3,2,82759.89769949441,0,0,755
552,3,2,82759.9076994005,0,0,760
553,3,2,82759.91769930658,0,0,765
554,3,2,82759.92769921267,0,0,769
555,3,2,82759.93769911875,0,0,772
556,3,2,82759.94769902482,0,0,775
557,3,2,82759.95769893091,0,0,776
558,3,2,82759.96769883699,0,0,778
559,3,2,82759.97769874308,0,0,778
560,3,2,82759.98769864916,0,0,777
561,3,2,82759.99769855523,0,0,775
562,3,2,82760.00769846133,0,0,772
563,3,2,82760.0176983674,0,0,768
564,3,2,82760.0276982735,0,0,764
565,3,2,82760.03769817957,0,0,760
566,3,2,82760.04769808566,0,0,758
567,3,2,82760.05769799174,0,0,755
568,3,2,82760.06769789782,0,0,754
569,3,2,82760.0776978039,0,0,753
570,3,2,82760.08769770998,0,0,754
571,3,2,82760.09769761607,0,0,756
572,3,2,82760.10769752215,0,0,760
573,3,2,82760.11769742823,1,0,764
574,3,2,82760.12769733432,0,0,771
575,3,2,82760.1376972404,0,0,774
576,3,2,82760.14769714649,0,0,777
577,3,2,82760.15769705256,0,0,778
578,3,2,82760.16769695864,0,0,777
579,3,2,82760.17769686473,0,0,775
580,3,2,82760.18769677081,0,0,770
581,3,2,82760.1976966769,0,0,763
582,3,2,82760.20769658298,0,0,755
583,3,2,82760.21769648907,0,0,747
584,3,2,82760.22769639514,0,0,739
585,3,2,82760.23769630122,0,0,731
586,3,2,82760.24769620731,0,0,723
587,3,2,82760.25769611339,0,0,716
588,3,2,82760.26769601948,0,0,709
589,3,2,82760.27769592556,0,0,702
590,3,2,82760.28769583163,0,0,696
591,3,2,82760.29769573773,0,0,691
592,3,2,82760.3076956438,0,0,686
593,3,2,82760.3176955499,0,0,683
594,3,2,82760.32769545597,0,0,681
595,3,2,82760.33769536206,0,0,680
596,3,2,82760.34769526814,0,0,679
597,3,2,82760.35769517421,0,0,680
598,3,2,82760.3676950803,0,0,682
599,3,2,82760.37769498638,1,0,683
600,3,2,82760.38769489247,0,0,683
601,3,2,82760.39769479855,0,0,684
602,3,2,82760.40769470463,0,0,686
603,3,2,82760.41769461072,0,0,688
604,3,2,82760.4276945168,0,0,692
605,3,2,82760.43769442289,0,0,696
606,3,2,82760.44769432896,0,0,700
607,3,2,82760.45769423504,0,0,702
608,3,2,82760.46769414113,0,0,705
609,3,2,82760.47769404721,0,0,707
610,3,2,82760.4876939533,0,0,708
611,3,2,82760.49769385938,0,0,710
612,3,2,82760.50769376547,0,0,712
613,3,2,82760.51769367154,0,0,715
614,3,2,82760.52769357762,0,0,717
615,3,2,82760.53769348371,0,0,718
616,3,2,82760.54769338979,0,0,719
617,3,2,82760.55769329588,1,0,717
618,3,2,82760.56769320196,0,0,715
619,3,2,82760.57769310803,0,0,713
620,3,2,82760.58769301412,0,0,710
621,3,2,82760.5976929202,0,0,708
622,3,2,82760.60769282629,0,0,707
623,3,2,82760.61769273237,0,0,706
624,3,2,82760.62769263845,0,0,705
625,3,2,82760.63769254454,0,0,704
626,3,2,82760.64769245061,0,0,703
627,3,2,82760.6576923567,0,0,702
628,3,2,82760.66769226278,0,0,699
629,3,2,82760.67769216887,0,0,696
630,3,2,82760.68769207495,0,0,693
631,3,2,82760.69769198103,0,0,691
632,3,2,82760.70769188712,0,0,688
633,3,2,82760.7176917932,0,0,684
634,3,2,82760.72769169929,0,0,681
635,3,2,82760.73769160536,0,0,676
636,3,2,82760.74769151144,0,0,671
637,3,2,82760.75769141753,0,0,666
638,3,2,82760.7676913236,0,0,660
639,3,2,82760.7776912297,0,0,655
640,3,2,82760.78769113577,0,0,649
641,3,2,82760.79769104185,0,0,643
642,3,2,82760.80769094794,0,0,637
643,3,2,82760.81769085402,0,0,629
644,3,2,82760.82769076011,0,0,623
645,3,2,82760.83769066619,0,0,615
646,3,2,82760.84769057228,0,0,608
647,3,2,82760.85769047835,0,0,600
648,3,2,82760.86769038443,0,0,592
649,3,2,82760.87769029052,0,0,583
650,3,2,82760.8876901966,0,0,575
651,3,2,82760.89769010269,0,0,564
652,3,2,82760.90769000877,0,0,552
653,3,2,82760.91768991484,0,0,537
654,3,2,82760.92768982094,0,0,519
655,3,2,82760.93768972701,0,0,499
656,3,2,82760.9476896331,0,0,476
657,3,2,82760.95768953918,0,0,449
658,3,2,82760.96768944526,0,0,422
659,3,2,82760.97768935135,0,0,396
660,3,2,82760.98768925742,0,0,373
661,3,2,82760.99768916352,0,0,350
662,3,2,82761.0076890696,0,0,330
663,3,2,82761.01768897568,0,0,313
664,3,2,82761.02768888176,0,0,298
665,3,2,82761.03768878784,0,0,288
666,3,2,82761.04768869393,0,0,278
667,3,2,82761.0576886,0,0,271
668,3,2,82761.0676885061,0,0,266
669,3,2,82761.07768841217,0,0,261
670,3,2,82761.08768831825,0,0,260
671,3,2,82761.09768822434,0,0,259
672,3,2,82761.10768813042,0,0,260
673,3,2,82761.11768803651,0,0,263
674,3,2,82761.12768794259,0,0,268
675,3,2,82761.13768784868,0,0,275
676,3,2,82761.14768775475,0,0,283
677,3,2,82761.15768766083,0,0,294
678,3,2,82761.16768756692,0,0,304
679,3,2,82761.177687473,0,0,310
680,3,2,82761.18768737909,0,0,310
681,3,2,82761.19768728517,0,0,304
682,3,2,82761.20768719124,0,0,295
683,3,2,82761.21768709733,0,0,288
684,3,2,82761.22768700341,0,0,282
685,3,2,82761.2376869095,0,0,280
686,3,2,82761.24768681558,0,0,281
687,3,2,82761.25768672166,0,0,283
688,3,2,82761.26768662775,0,0,286
689,3,2,82761.27768653382,0,0,289
690,3,2,82761.28768643991,0,0,292
691,3,2,82761.29768634599,0,0,295
692,3,2,82761.30768625208,0,0,301
693,3,2,82761.31768615816,0,0,306
694,3,2,82761.32768606424,0,0,312
695,3,2,82761.33768597033,0,0,318
696,3,2,82761.3476858764,0,0,323
697,3,2,82761.3576857825,0,0,328
698,3,2,82761.36768568857,0,0,333
699,3,2,82761.37768559465,0,0,338
700,3,2,82761.38768550074,0,0,343
701,3,2,82761.39768540682,0,0,348
702,3,2,82761.40768531291,0,0,353
703,3,2,82761.41768521898,0,0,358
704,3,2,82761.42768512506,0,0,363
705,3,2,82761.43768503115,0,0,367
706,3,2,82761.44768493723,0,0,371
707,3,2,82761.45768484332,0,0,374
708,3,2,82761.4676847494,0,0,377
709,3,2,82761.47768465549,0,0,380
710,3,2,82761.48768456157,0,0,385
711,3,2,82761.49768446764,0,0,388
712,3,2,82761.50768437373,0,0,391
713,3,2,82761.51768427981,0,0,395
714,3,2,82761.5276841859,0,0,397
715,3,2,82761.53768409198,0,0,398
716,3,2,82761.54768399805,0,0,398
717,3,2,82761.55768390415,0,0,397
718,3,2,82761.56768381022,0,0,396
719,3,2,82761.57768371631,0,0,395
720,3,2,82761.58768362239,0,0,393
721,3,2,82761.59768352847,0,0,390
722,3,2,82761.60768343456,0,0,388
723,3,2,82761.61768334064,0,1,385
724,3,2,82761.62768324673,0,0,384
725,3,2,82761.6376831528,0,0,381
726,3,2,82761.6476830589,0,0,380
727,3,2,82761.65768296497,0,0,379
728,3,2,82761.66768287105,0,0,378
729,3,2,82761.67768277714,0,0,377
730,3,2,82761.68768268322,0,0,377
731,3,2,82761.6976825893,0,0,376
732,3,2,82761.70768249538,0,0,375
733,3,2,82761.71768240146,0,0,375
734,3,2,82761.72768230755,0,0,374
735,3,2,82761.73768221363,0,0,373
736,3,2,82761.74768211972,0,0,374
737,3,2,82761.7576820258,0,0,377
738,3,2,82761.76768193189,0,0,381
739,3,2,82761.77768183796,0,0,387
740,3,2,82761.78768174404,0,0,393
741,3,2,82761.79768165013,0,0,401
742,3,2,82761.80768155621,0,0,408
743,3,2,82761.8176814623,0,0,413
744,3,2,82761.82768136838,0,0,420
745,3,2,82761.83768127445,0,0,425
746,3,2,82761.84768118054,0,0,431
747,3,2,82761.85768108662,0,0,435
748,3,2,82761.86768099271,0,0,440
749,3,2,82761.87768089879,0,0,445
750,3,2,82761.88768080487,0,0,449
751,3,2,82761.89768071096,0,0,452
752,3,2,82761.90768061703,0,0,455
753,3,2,82761.91768052313,0,0,458
754,3,2,82761.9276804292,0,0,461
755,3,2,82761.9376803353,0,0,463
756,3,2,82761.94768024137,0,0,466
757,3,2,82761.95768014745,0,0,470
758,3,2,82761.96768005354,0,0,472
759,3,2,82761.97767995961,0,0,476
760,3,2,82761.9876798657,0,0,479
761,3,2,82761.99767977178,0,0,481
762,3,2,82762.00767967786,0,0,484
763,3,2,82762.01767958395,0,0,486
764,3,2,82762.02767949003,0,0,488
765,3,2,82762.03767939612,0,0,491
766,3,2,82762.0476793022,0,0,494
767,3,2,82762.05767920827,0,0,496
768,3,2,82762.06767911436,0,0,498
769,3,2,82762.07767902044,0,0,500
770,3,2,82762.08767892653,0,0,502
771,3,2,82762.09767883261,0,0,502
772,3,2,82762.1076787387,0,0,500
773,3,2,82762.11767864478,0,0,497
774,3,2,82762.12767855085,0,0,494
775,3,2,82762.13767845694,0,0,488
776,3,2,82762.14767836302,0,0,482
777,3,2,82762.15767826911,0,0,475
778,3,2,82762.16767817519,0,0,467
779,3,2,82762.17767808127,0,0,460
780,3,2,82762.18767798736,0,0,451
781,3,2,82762.19767789343,0,0,444
782,3,2,82762.20767779952,0,0,437
783,3,2,82762.2176777056,0,0,430
784,3,2,82762.22767761168,0,0,423
785,3,2,82762.23767751777,0,0,417
786,3,2,82762.24767742385,0,0,409
787,3,2,82762.25767732994,0,0,403
788,3,2,82762.26767723601,0,0,397
789,3,2,82762.2776771421,0,0,392
790,3,2,82762.28767704818,0,0,386
791,3,2,82762.29767695426,0,0,382
792,3,2,82762.30767686035,0,0,377
793,3,2,82762.31767676643,0,0,375
794,3,2,82762.32767667252,0,0,372
795,3,2,82762.3376765786,0,0,371
796,3,2,82762.34767648467,0,0,371
797,3,2,82762.35767639076,0,0,371
798,3,2,82762.36767629684,0,0,372
799,3,2,82762.37767620293,0,0,375
800,3,2,82762.387676109,0,0,378
801,3,2,82762.39767601508,0,0,382
802,3,2,82762.40767592117,0,0,386
803,3,2,82762.41767582725,0,0,391
804,3,2,82762.42767573334,0,0,396
805,3,2,82762.43767563942,0,0,401
806,3,2,82762.44767554551,0,0,408
807,3,2,82762.45767545159,0,0,413
808,3,2,82762.46767535766,0,0,419
809,3,2,82762.47767526376,0,0,425
810,3,2,82762.48767516983,0,0,432
811,3,2,82762.49767507592,0,0,437
812,3,2,82762.507674982,0,0,443
813,3,2,82762.51767488808,0,0,449
814,3,2,82762.52767479417,0,0,454
815,3,2,82762.53767470024,0,0,459
816,3,2,82762.54767460634,0,0,464
817,3,2,82762.55767451241,0,0,467
818,3,2,82762.5676744185,0,0,471
819,3,2,82762.57767432458,0,0,474
820,3,2,82762.58767423066,0,0,476
821,3,2,82762.59767413675,0,0,479
822,3,2,82762.60767404283,0,0,481
823,3,2,82762.61767394892,0,0,483
824,3,2,82762.627673855,0,0,485
825,3,2,82762.63767376107,0,0,486
826,3,2,82762.64767366716,0,0,487
827,3,2,82762.65767357324,0,0,489
828,3,2,82762.66767347933,0,0,490
829,3,2,82762.6776733854,0,0,492
830,3,2,82762.68767329148,0,0,493
831,3,2,82762.69767319757,0,0,494
832,3,2,82762.70767310365,0,0,496
833,3,2,82762.71767300974,0,0,496
834,3,2,82762.72767291582,0,0,497
835,3,2,82762.73767282191,0,0,497
836,3,2,82762.74767272799,0,0,496
837,3,2,82762.75767263406,0,0,498
838,3,2,82762.76767254015,0,0,498
839,3,2,82762.77767244623,0,0,499
840,3,2,82762.78767235232,0,0,499
841,3,2,82762.7976722584,0,0,498
842,3,2,82762.80767216448,0,0,497
843,3,2,82762.81767207057,0,0,496
844,3,2,82762.82767197664,0,0,494
845,3,2,82762.83767188273,0,0,492
846,3,2,82762.84767178881,0,0,490
847,3,2,82762.85767169489,0,0,488
848,3,2,82762.86767160098,0,0,486
849,3,2,82762.87767150706,0,0,485
850,3,2,82762.88767141315,0,0,483
851,3,2,82762.89767131922,0,0,481
852,3,2,82762.90767122532,0,0,479
853,3,2,82762.91767113139,0,0,478
854,3,2,82762.92767103747,0,0,476
855,3,2,82762.93767094356,0,0,474
856,3,2,82762.94767084964,0,0,472
857,3,2,82762.95767075573,0,0,470
858,3,2,82762.9676706618,0,0,468
859,3,2,82762.97767056788,0,0,465
860,3,2,82762.98767047397,0,0,463
861,3,2,82762.99767038005,0,0,458
862,3,2,82763.00767028614,0,0,455
863,3,2,82763.01767019222,0,0,449
864,3,2,82763.0276700983,0,0,445
865,3,2,82763.03767000439,0,0,440
866,3,2,82763.04766991046,0,0,435
867,3,2,82763.05766981655,0,0,430
868,3,2,82763.06766972263,0,0,424
869,3,2,82763.07766962872,0,0,419
870,3,2,82763.0876695348,0,0,416
871,3,2,82763.09766944087,0,0,411
872,3,2,82763.10766934697,0,0,408
873,3,2,82763.11766925304,0,0,406
874,3,2,82763.12766915913,0,0,404
875,3,2,82763.13766906521,0,0,401
876,3,2,82763.14766897129,0,0,399
877,3,2,82763.15766887738,0,0,397
878,3,2,82763.16766878346,0,0,395
879,3,2,82763.17766868955,0,0,392
880,3,2,82763.18766859562,0,0,390
881,3,2,82763.19766850171,0,0,388
882,3,2,82763.20766840779,0,0,386
883,3,2,82763.21766831387,0,0,384
884,3,2,82763.22766821996,0,0,380
885,3,2,82763.23766812604,0,0,378
886,3,2,82763.24766803213,0,0,376
887,3,2,82763.2576679382,0,0,372
888,3,2,82763.26766784428,0,0,370
889,3,2,82763.27766775037,0,0,366
890,3,2,82763.28766765645,0,0,363
891,3,2,82763.29766756254,0,0,359
892,3,2,82763.30766746862,0,0,355
893,3,2,82763.3176673747,0,0,350
894,3,2,82763.32766728078,0,0,346
895,3,2,82763.33766718686,0,0,341
896,3,2,82763.34766709295,0,0,336
897,3,2,82763.35766699903,0,0,332
898,3,2,82763.36766690512,0,0,327
899,3,2,82763.3776668112,0,0,323
900,3,2,82763.38766671727,0,0,318
901,3,2,82763.39766662336,0,0,314
902,3,2,82763.40766652944,0,0,311
903,3,2,82763.41766643553,0,0,307
904,3,2,82763.42766634161,0,0,304
905,3,2,82763.43766624769,0,0,301
906,3,2,82763.44766615378,0,0,298
907,3,2,82763.45766605985,0,0,295
908,3,2,82763.46766596595,1,0,291
909,3,2,82763.47766587202,0,0,289
910,3,2,82763.4876657781,0,0,287
911,3,2,82763.49766568419,0,0,285
912,3,2,82763.50766559027,0,0,284
913,3,2,82763.51766549636,0,0,283
914,3,2,82763.52766540243,0,0,282
915,3,2,82763.53766530853,0,0,281
916,3,2,82763.5476652146,0,0,282
917,3,2,82763.55766512068,0,0,283
918,3,2,82763.56766502677,0,0,284
919,3,2,82763.57766493285,0,0,287
920,3,2,82763.58766483894,0,0,291
921,3,2,82763.59766474502,0,0,297
922,3,2,82763.60766465109,0,0,305
923,3,2,82763.61766455718,0,0,315
924,3,2,82763.62766446326,0,0,325
925,3,2,82763.63766436935,0,0,337
926,3,2,82763.64766427543,0,0,351
927,3,2,82763.6576641815,0,0,365
928,3,2,82763.6676640876,0,0,379
929,3,2,82763.67766399367,0,0,393
930,3,2,82763.68766389976,0,0,408
931,3,2,82763.69766380584,0,0,422
932,3,2,82763.70766371193,0,0,434
933,3,2,82763.71766361801,0,0,448
934,3,2,82763.72766352409,0,0,460
935,3,2,82763.73766343018,0,0,474
936,3,2,82763.74766333625,0,0,487
937,3,2,82763.75766324234,0,0,499
938,3,2,82763.76766314842,0,0,511
939,3,2,82763.7776630545,0,0,522
940,3,2,82763.78766296059,0,0,531
941,3,2,82763.79766286667,0,0,540
942,3,2,82763.80766277276,0,0,548
943,3,2,82763.81766267883,0,0,555
944,3,2,82763.82766258492,0,0,561
945,3,2,82763.837662491,0,0,567
946,3,2,82763.84766239708,0,0,572
947,3,2,82763.85766230317,0,0,576
948,3,2,82763.86766220925,0,0,580
949,3,2,82763.87766211534,0,0,583
950,3,2,82763.88766202141,0,0,586
951,3,2,82763.89766192749,0,0,589
952,3,2,82763.90766183358,0,0,592
953,3,2,82763.91766173966,0,0,595
954,3,2,82763.92766164575,0,0,597
955,3,2,82763.93766155183,0,0,599
956,3,2,82763.9476614579,0,0,600
957,3,2,82763.957661364,0,0,601
958,3,2,82763.96766127007,0,0,600
959,3,2,82763.97766117616,0,0,600
960,3,2,82763.98766108224,0,0,598
961,3,2,82763.99766098833,0,0,595
962,3,2,82764.00766089441,0,0,593
963,3,2,82764.01766080048,0,0,590
964,3,2,82764.02766070658,0,0,587
965,3,2,82764.03766061265,0,0,583
966,3,2,82764.04766051874,0,0,579
967,3,2,82764.05766042482,0,0,575
968,3,2,82764.0676603309,0,0,571
969,3,2,82764.07766023699,0,0,566
970,3,2,82764.08766014306,0,0,562
971,3,2,82764.09766004916,0,0,557
972,3,2,82764.10765995523,0,0,553
973,3,2,82764.11765986131,0,0,548
974,3,2,82764.1276597674,0,0,543
975,3,2,82764.13765967348,0,0,539
976,3,2,82764.14765957957,0,0,535
977,3,2,82764.15765948565,0,0,531
978,3,2,82764.16765939174,0,0,527
979,3,2,82764.17765929781,0,0,524
980,3,2,82764.18765920389,0,0,522
981,3,2,82764.19765910998,0,0,520
982,3,2,82764.20765901606,0,0,518
983,3,2,82764.21765892215,0,0,517
984,3,2,82764.22765882823,0,0,517
985,3,2,82764.2376587343,0,0,517
986,3,2,82764.2476586404,0,0,517
987,3,2,82764.25765854647,0,0,518
988,3,2,82764.26765845256,0,0,519
989,3,2,82764.27765835864,0,0,520
990,3,2,82764.28765826471,0,0,523
991,3,2,82764.2976581708,0,0,524
992,3,2,82764.30765807688,0,0,526
993,3,2,82764.31765798297,0,0,528
994,3,2,82764.32765788905,0,0,531
995,3,2,82764.33765779514,0,0,532
996,3,2,82764.34765770122,0,0,533
997,3,2,82764.3576576073,0,0,533
998,3,2,82764.36765751339,0,0,534
999,3,2,82764.37765741946,0,0,533
1000,3,2,82764.38765732555,0,0,532
1001,3,2,82764.39765723163,0,0,533
1002,3,2,82764.40765713771,0,0,533
1003,3,2,82764.4176570438,0,0,533
1004,3,2,82764.42765694988,0,0,534
1005,3,2,82764.43765685597,0,0,535
1006,3,2,82764.44765676204,0,0,536
1007,3,2,82764.45765666812,0,0,537
1008,3,2,82764.46765657421,0,0,539
1009,3,2,82764.47765648029,0,0,541
1010,3,2,82764.48765638638,0,0,543
1011,3,2,82764.49765629246,0,0,546
1012,3,2,82764.50765619855,0,0,550
1013,3,2,82764.51765610462,0,0,553
1014,3,2,82764.5276560107,0,0,557
1015,3,2,82764.53765591679,0,0,561
1016,3,2,82764.54765582287,0,0,566
1017,3,2,82764.55765572896,0,0,569
1018,3,2,82764.56765563504,0,0,575
1019,3,2,82764.57765554111,0,0,580
1020,3,2,82764.5876554472,0,0,585
1021,3,2,82764.59765535328,0,0,591
1022,3,2,82764.60765525937,0,0,596
1023,3,2,82764.61765516545,0,0,601
1024,3,2,82764.62765507154,0,1,605
1025,3,2,82764.63765497762,0,0,609
1026,3,2,82764.6476548837,0,0,612
1027,3,2,82764.65765478979,0,0,615
1028,3,2,82764.66765469586,0,0,619
1029,3,2,82764.67765460195,0,0,621
1030,3,2,82764.68765450803,0,0,625
1031,3,2,82764.6976544141,0,0,628
1032,3,2,82764.7076543202,0,0,630
1033,3,2,82764.71765422628,0,0,633
1034,3,2,82764.72765413237,0,0,635
1035,3,2,82764.73765403844,0,0,636
1036,3,2,82764.74765394452,0,0,638
1037,3,2,82764.75765385061,0,0,639
1038,3,2,82764.76765375669,0,0,640
1039,3,2,82764.77765366278,0,0,640
1040,3,2,82764.78765356886,0,0,641
1041,3,2,82764.79765347495,0,0,642
1042,3,2,82764.80765338102,0,0,643
1043,3,2,82764.8176532871,0,0,644
1044,3,2,82764.82765319319,0,0,644
1045,3,2,82764.83765309927,0,0,646
1046,3,2,82764.84765300536,0,0,647
1047,3,2,82764.85765291144,0,0,648
1048,3,2,82764.86765281751,0,0,649
1049,3,2,82764.8776527236,0,0,651
1050,3,2,82764.88765262968,0,0,652
1051,3,2,82764.89765253577,0,0,654
1052,3,2,82764.90765244185,0,0,655
1053,3,2,82764.91765234793,0,0,657
1054,3,2,82764.92765225402,0,0,659
1055,3,2,82764.9376521601,0,0,661
1056,3,2,82764.94765206618,0,0,663
1057,3,2,82764.95765197226,0,0,664
1058,3,2,82764.96765187835,0,0,668
1059,3,2,82764.97765178443,0,0,670
1060,3,2,82764.9876516905,0,0,673
1061,3,2,82764.9976515966,0,0,675
1062,3,2,82765.00765150267,0,0,677
1063,3,2,82765.01765140877,0,0,679
1064,3,2,82765.02765131484,0,0,680
1065,3,2,82765.03765122092,0,0,682
1066,3,2,82765.04765112701,0,0,683
1067,3,2,82765.05765103309,0,0,685
1068,3,2,82765.06765093918,0,0,688
1069,3,2,82765.07765084525,0,0,689
1070,3,2,82765.08765075133,0,0,691
1071,3,2,82765.09765065742,0,0,694
1072,3,2,82765.1076505635,0,0,697
1073,3,2,82765.11765046959,0,0,700
1074,3,2,82765.12765037567,0,0,703
1075,3,2,82765.13765028176,0,0,705
1076,3,2,82765.14765018784,0,0,709
1077,3,2,82765.15765009391,0,0,712
1078,3,2,82765.16765,0,0,716
1079,3,2,82765.17764990608,0,0,720
1080,3,2,82765.18764981217,0,0,725
1081,3,2,82765.19764971825,0,0,729
1082,3,2,82765.20764962432,0,0,734
1083,3,2,82765.21764953042,0,0,737
1084,3,2,82765.22764943649,0,0,740
1085,3,2,82765.23764934258,0,0,743
1086,3,2,82765.24764924866,0,0,744
1087,3,2,82765.25764915475,0,0,745
1088,3,2,82765.26764906083,0,0,746
1089,3,2,82765.2776489669,0,0,745
1090,3,2,82765.287648873,0,0,744
1091,3,2,82765.29764877907,0,0,743
1092,3,2,82765.30764868516,0,0,741
1093,3,2,82765.31764859124,0,0,740
1094,3,2,82765.32764849732,0,0,737
1095,3,2,82765.33764840341,0,0,735
1096,3,2,82765.34764830949,0,0,731
1097,3,2,82765.35764821558,0,0,728
1098,3,2,82765.36764812165,0,0,723
1099,3,2,82765.37764802773,0,0,719
1100,3,2,82765.38764793382,0,0,713
1101,3,2,82765.3976478399,0,0,709
1102,3,2,82765.40764774599,0,0,704
1103,3,2,82765.41764765207,0,0,699
1104,3,2,82765.42764755816,0,0,694
1105,3,2,82765.43764746423,0,0,689
1106,3,2,82765.44764737031,0,0,685
1107,3,2,82765.4576472764,0,0,680
1108,3,2,82765.46764718248,0,0,674
1109,3,2,82765.47764708857,0,0,668
1110,3,2,82765.48764699465,0,0,661
1111,3,2,82765.49764690072,0,0,654
1112,3,2,82765.50764680681,0,0,646
1113,3,2,82765.51764671289,0,0,638
1114,3,2,82765.52764661898,0,0,630
1115,3,2,82765.53764652506,0,0,621
1116,3,2,82765.54764643114,0,0,612
1117,3,2,82765.55764633723,0,0,604
1118,3,2,82765.5676462433,0,0,596
1119,3,2,82765.5776461494,0,0,587
1120,3,2,82765.58764605547,0,0,579
1121,3,2,82765.59764596156,0,0,571
1122,3,2,82765.60764586764,0,0,563
1123,3,2,82765.61764577372,0,0,554
1124,3,2,82765.62764567981,0,0,547
1125,3,2,82765.63764558588,0,0,539
1126,3,2,82765.64764549198,0,0,532
1127,3,2,82765.65764539805,0,0,524
1128,3,2,82765.66764530413,0,0,518
1129,3,2,82765.67764521022,0,0,511
1130,3,2,82765.6876451163,0,0,504
1131,3,2,82765.69764502239,0,0,498
1132,3,2,82765.70764492847,0,0,493
1133,3,2,82765.71764483454,0,0,487
1134,3,2,82765.72764474063,0,0,483
1135,3,2,82765.73764464671,0,0,479
1136,3,2,82765.7476445528,0,0,475
1137,3,2,82765.75764445888,0,0,472
1138,3,2,82765.76764436497,0,0,469
1139,3,2,82765.77764427105,0,0,466
1140,3,2,82765.78764417712,0,0,463
1141,3,2,82765.79764408321,0,0,462
1142,3,2,82765.80764398929,0,0,461
1143,3,2,82765.81764389538,0,0,460
1144,3,2,82765.82764380146,0,0,459
1145,3,2,82765.83764370753,0,0,459
1146,3,2,82765.84764361363,0,0,459
1147,3,2,82765.8576435197,0,0,460
1148,3,2,82765.8676434258,0,0,462
1149,3,2,82765.87764333187,0,0,463
1150,3,2,82765.88764323796,0,0,464
1151,3,2,82765.89764314404,0,0,465
1152,3,2,82765.90764305012,0,0,465
1153,3,2,82765.9176429562,0,0,464
1154,3,2,82765.92764286228,0,0,463
1155,3,2,82765.93764276837,0,0,462
1156,3,2,82765.94764267445,0,0,460
1157,3,2,82765.95764258053,0,0,459
1158,3,2,82765.96764248662,0,0,459
1159,3,2,82765.9776423927,0,0,458
1160,3,2,82765.98764229879,0,0,459
1161,3,2,82765.99764220486,0,0,459
1162,3,2,82766.00764211094,0,0,460
1163,3,2,82766.01764201703,0,0,461
1164,3,2,82766.02764192311,0,0,462
1165,3,2,82766.0376418292,0,0,464
1166,3,2,82766.04764173528,0,0,465
1167,3,2,82766.05764164137,0,0,465
1168,3,2,82766.06764154744,0,0,466
1169,3,2,82766.07764145352,0,0,467
1170,3,2,82766.08764135961,0,0,467
1171,3,2,82766.09764126569,0,0,469
1172,3,2,82766.10764117178,0,0,470
1173,3,2,82766.11764107786,0,0,472
1174,3,2,82766.12764098393,0,0,473
1175,3,2,82766.13764089003,0,0,476
1176,3,2,82766.1476407961,0,0,478
1177,3,2,82766.1576407022,0,0,479
1178,3,2,82766.16764060827,0,0,479
1179,3,2,82766.17764051435,0,0,479
1180,3,2,82766.18764042044,0,0,476
1181,3,2,82766.19764032651,0,0,473
1182,3,2,82766.2076402326,0,0,470
1183,3,2,82766.21764013868,0,0,466
1184,3,2,82766.22764004477,0,0,463
1185,3,2,82766.23763995085,0,0,461
1186,3,2,82766.24763985693,0,0,458
1187,3,2,82766.25763976302,0,0,456
1188,3,2,82766.2676396691,0,0,455
1189,3,2,82766.27763957519,0,0,454
1190,3,2,82766.28763948126,0,0,454
1191,3,2,82766.29763938734,0,0,455
1192,3,2,82766.30763929343,0,0,455
1193,3,2,82766.31763919951,0,0,458
1194,3,2,82766.3276391056,0,0,460
1195,3,2,82766.33763901168,0,0,462
1196,3,2,82766.34763891775,0,0,466
1197,3,2,82766.35763882384,0,0,468
1198,3,2,82766.36763872992,0,0,472
1199,3,2,82766.37763863601,0,0,475
1200,3,2,82766.38763854209,0,0,478
1201,3,2,82766.39763844818,0,0,482
1202,3,2,82766.40763835426,0,0,485
1203,3,2,82766.41763826033,0,0,489
1204,3,2,82766.42763816642,0,0,494
1205,3,2,82766.4376380725,0,0,498
1206,3,2,82766.44763797859,0,0,503
1207,3,2,82766.45763788467,0,0,508
1208,3,2,82766.46763779075,1,0,513
1209,3,2,82766.47763769684,0,0,518
1210,3,2,82766.48763760291,0,0,524
1211,3,2,82766.497637509,0,0,529
1212,3,2,82766.50763741508,0,0,534
1213,3,2,82766.51763732116,0,0,540
1214,3,2,82766.52763722725,0,0,544
1215,3,2,82766.53763713333,0,0,548
1216,3,2,82766.54763703942,0,0,552
1217,3,2,82766.5576369455,0,0,556
1218,3,2,82766.56763685159,0,0,560
1219,3,2,82766.57763675766,0,0,563
1220,3,2,82766.58763666374,0,0,565
1221,3,2,82766.59763656983,0,0,568
1222,3,2,82766.6076364759,0,0,571
1223,3,2,82766.617636382,0,0,573
1224,3,2,82766.62763628807,0,0,575
1225,3,2,82766.63763619415,0,0,577
1226,3,2,82766.64763610024,0,0,577
1227,3,2,82766.65763600632,0,0,578
1228,3,2,82766.66763591241,0,0,580
1229,3,2,82766.67763581849,0,0,581
1230,3,2,82766.68763572458,0,0,580
1231,3,2,82766.69763563065,0,0,580
1232,3,2,82766.70763553673,0,0,579
1233,3,2,82766.71763544282,0,0,578
1234,3,2,82766.7276353489,0,0,577
1235,3,2,82766.73763525499,0,0,577
1236,3,2,82766.74763516107,0,0,578
1237,3,2,82766.75763506714,0,0,578
1238,3,2,82766.76763497324,0,0,579
1239,3,2,82766.77763487931,0,0,579
1240,3,2,82766.7876347854,0,0,579
1241,3,2,82766.79763469148,0,0,580
1242,3,2,82766.80763459756,0,0,580
1243,3,2,82766.81763450365,0,0,581
1244,3,2,82766.82763440972,0,0,583
1245,3,2,82766.83763431582,0,0,584
1246,3,2,82766.8476342219,0,0,586
1247,3,2,82766.85763412798,0,0,587
1248,3,2,82766.86763403406,0,0,589
1249,3,2,82766.87763394014,0,0,590
1250,3,2,82766.88763384623,0,0,591
1251,3,2,82766.8976337523,0,0,592
1252,3,2,82766.9076336584,0,0,592
1253,3,2,82766.91763356447,0,0,593
1254,3,2,82766.92763347055,0,0,593
1255,3,2,82766.93763337664,0,0,593
1256,3,2,82766.94763328272,0,0,594
1257,3,2,82766.95763318881,0,0,593
1258,3,2,82766.96763309489,0,0,593
1259,3,2,82766.97763300096,0,0,593
1260,3,2,82766.98763290705,0,0,592
1261,3,2,82766.99763281313,0,0,591
1262,3,2,82767.00763271922,0,0,589
1263,3,2,82767.0176326253,0,0,587
1264,3,2,82767.02763253139,0,0,585
1265,3,2,82767.03763243747,0,0,583
1266,3,2,82767.04763234354,0,0,582
1267,3,2,82767.05763224963,0,0,582
1268,3,2,82767.06763215571,0,0,581
1269,3,2,82767.0776320618,0,0,581
1270,3,2,82767.08763196788,0,0,579
1271,3,2,82767.09763187396,0,0,578
1272,3,2,82767.10763178005,0,0,577
1273,3,2,82767.11763168612,0,0,576
1274,3,2,82767.12763159222,0,0,575
1275,3,2,82767.13763149829,0,0,574
1276,3,2,82767.14763140437,0,0,572
1277,3,2,82767.15763131046,0,0,571
1278,3,2,82767.16763121654,1,0,569
1279,3,2,82767.17763112263,0,0,567
1280,3,2,82767.1876310287,0,0,563
1281,3,2,82767.1976309348,0,0,560
1282,3,2,82767.20763084087,0,0,556
1283,3,2,82767.21763074695,0,0,551
1284,3,2,82767.22763065304,0,0,547
1285,3,2,82767.23763055912,0,0,543
1286,3,2,82767.24763046521,0,0,538
1287,3,2,82767.25763037128,1,0,532
1288,3,2,82767.26763027736,0,0,527
1289,3,2,82767.27763018345,0,0,523
1290,3,2,82767.28763008953,0,0,518
1291,3,2,82767.29762999562,0,0,512
1292,3,2,82767.3076299017,0,0,508
1293,3,2,82767.31762980779,0,0,504
1294,3,2,82767.32762971387,0,0,499
1295,3,2,82767.33762961994,0,0,497
1296,3,2,82767.34762952603,0,0,493
1297,3,2,82767.35762943211,0,0,491
1298,3,2,82767.3676293382,0,0,488
1299,3,2,82767.37762924428,0,0,487
1300,3,2,82767.38762915035,0,0,485
1301,3,2,82767.39762905645,0,0,484
1302,3,2,82767.40762896252,0,0,483
1303,3,2,82767.41762886861,0,0,483
1304,3,2,82767.42762877469,0,0,483
1305,3,2,82767.43762868077,0,0,484
1306,3,2,82767.44762858686,0,0,485
1307,3,2,82767.45762849294,0,0,486
1308,3,2,82767.46762839903,0,0,487
1309,3,2,82767.4776283051,0,0,488
1310,3,2,82767.4876282112,0,0,490
1311,3,2,82767.49762811727,0,0,493
1312,3,2,82767.50762802335,0,0,496
1313,3,2,82767.51762792944,0,0,498
1314,3,2,82767.52762783552,0,0,502
1315,3,2,82767.5376277416,0,0,506
1316,3,2,82767.54762764768,0,0,510
1317,3,2,82767.55762755376,0,0,515
1318,3,2,82767.56762745985,0,0,521
1319,3,2,82767.57762736593,0,0,526
1320,3,2,82767.58762727202,0,0,531
1321,3,2,82767.5976271781,0,0,537
1322,3,2,82767.60762708417,0,0,544
1323,3,2,82767.61762699026,0,0,550
1324,3,2,82767.62762689634,0,0,556
1325,3,2,82767.63762680243,0,0,563
1326,3,2,82767.64762670851,0,0,569
1327,3,2,82767.6576266146,0,0,575
1328,3,2,82767.66762652068,0,0,582
1329,3,2,82767.67762642675,0,0,588
1330,3,2,82767.68762633284,0,0,595
1331,3,2,82767.69762623892,0,0,600
1332,3,2,82767.70762614501,0,0,607
1333,3,2,82767.71762605109,0,0,612
1334,3,2,82767.72762595717,0,0,616
1335,3,2,82767.73762586326,0,0,622
1336,3,2,82767.74762576933,0,0,625
1337,3,2,82767.75762567543,0,0,629
1338,3,2,82767.7676255815,0,0,633
1339,3,2,82767.77762548758,0,0,636
1340,3,2,82767.78762539367,1,0,638
1341,3,2,82767.79762529975,0,0,640
1342,3,2,82767.80762520584,0,0,641
1343,3,2,82767.81762511191,0,0,640
1344,3,2,82767.827625018,0,0,640
1345,3,2,82767.83762492408,0,0,640
1346,3,2,82767.84762483016,0,0,639
1347,3,2,82767.85762473625,0,0,639
1348,3,2,82767.86762464233,0,0,638
1349,3,2,82767.87762454842,0,0,636
1350,3,2,82767.8876244545,0,0,633
1351,3,2,82767.89762436057,0,0,630
1352,3,2,82767.90762426666,0,0,625
1353,3,2,82767.91762417274,0,0,621
1354,3,2,82767.92762407883,0,0,615
1355,3,2,82767.93762398491,0,0,610
1356,3,2,82767.94762389098,0,0,606
1357,3,2,82767.95762379708,0,0,600
1358,3,2,82767.96762370315,0,0,596
1359,3,2,82767.97762360924,0,0,592
1360,3,2,82767.98762351532,0,0,589
1361,3,2,82767.99762342141,0,0,586
1362,3,2,82768.00762332749,0,0,583
1363,3,2,82768.01762323357,0,0,581
1364,3,2,82768.02762313966,0,0,579
1365,3,2,82768.03762304573,0,0,579
1366,3,2,82768.04762295182,0,0,577
1367,3,2,82768.0576228579,0,0,577
1368,3,2,82768.06762276398,0,0,577
1369,3,2,82768.07762267007,0,0,577
1370,3,2,82768.08762257615,0,0,578
1371,3,2,82768.09762248224,0,0,578
1372,3,2,82768.10762238831,0,0,579
1373,3,2,82768.1176222944,0,0,579
1374,3,2,82768.12762220048,0,0,580
1375,3,2,82768.13762210656,0,0,582
1376,3,2,82768.14762201265,0,0,583
1377,3,2,82768.15762191873,0,0,583
1378,3,2,82768.16762182482,0,0,583
1379,3,2,82768.1776217309,0,0,583
1380,3,2,82768.18762163697,0,0,583
1381,3,2,82768.19762154306,0,0,583
1382,3,2,82768.20762144914,0,0,582
1383,3,2,82768.21762135523,0,0,582
1384,3,2,82768.2276212613,0,0,581
1385,3,2,82768.23762116738,0,0,581
1386,3,2,82768.24762107347,0,0,581
1387,3,2,82768.25762097955,0,0,582
1388,3,2,82768.26762088564,0,0,582
1389,3,2,82768.27762079172,0,0,582
1390,3,2,82768.28762069781,0,0,583
1391,3,2,82768.29762060389,0,0,583
1392,3,2,82768.30762050996,0,0,584
1393,3,2,82768.31762041606,0,0,585
1394,3,2,82768.32762032213,0,0,586
1395,3,2,82768.33762022822,0,0,587
1396,3,2,82768.3476201343,0,0,588
1397,3,2,82768.35762004038,0,0,589
1398,3,2,82768.36761994647,0,0,591
1399,3,2,82768.37761985254,0,0,592
1400,3,2,82768.38761975864,0,0,593
1401,3,2,82768.39761966471,0,0,594
1402,3,2,82768.40761957079,0,0,595
1403,3,2,82768.41761947688,0,0,596
1404,3,2,82768.42761938296,0,0,598
1405,3,2,82768.43761928905,0,0,599
1406,3,2,82768.44761919513,0,0,600
1407,3,2,82768.45761910122,0,0,601
1408,3,2,82768.4676190073,0,0,602
1409,3,2,82768.47761891337,0,0,603
1410,3,2,82768.48761881946,0,0,603
1411,3,2,82768.49761872554,0,0,603
1412,3,2,82768.50761863163,0,0,603
1413,3,2,82768.5176185377,0,0,603
1414,3,2,82768.52761844378,0,0,603
1415,3,2,82768.53761834987,0,0,602
1416,3,2,82768.54761825595,0,0,601
1417,3,2,82768.55761816204,0,0,601
1418,3,2,82768.56761806812,0,0,600
1419,3,2,82768.5776179742,0,0,600
1420,3,2,82768.58761788029,0,0,600
1421,3,2,82768.59761778636,0,0,601
1422,3,2,82768.60761769245,0,0,601
1423,3,2,82768.61761759853,0,0,602
1424,3,2,82768.62761750462,0,0,603
1425,3,2,82768.6376174107,0,0,604
1426,3,2,82768.64761731678,0,0,604
1427,3,2,82768.65761722287,0,0,604
1428,3,2,82768.66761712894,0,0,604
1429,3,2,82768.67761703503,0,0,602
1430,3,2,82768.68761694111,0,0,600
1431,3,2,82768.69761684719,0,0,598
1432,3,2,82768.70761675328,0,0,595
1433,3,2,82768.71761665936,0,0,592
1434,3,2,82768.72761656545,0,0,588
1435,3,2,82768.73761647152,0,0,584
1436,3,2,82768.74761637762,0,0,581
1437,3,2,82768.75761628369,0,0,577
1438,3,2,82768.76761618977,0,0,573
1439,3,2,82768.77761609586,0,0,570
1440,3,2,82768.78761600194,0,0,566
1441,3,2,82768.79761590803,0,0,563
1442,3,2,82768.8076158141,0,0,559
1443,3,2,82768.81761572018,0,0,556
1444,3,2,82768.82761562627,0,0,552
1445,3,2,82768.83761553235,0,0,547
1446,3,2,82768.84761543844,0,0,544
1447,3,2,82768.85761534452,0,0,540
1448,3,2,82768.8676152506,0,0,537
1449,3,2,82768.87761515669,0,0,534
1450,3,2,82768.88761506276,0,0,531
1451,3,2,82768.89761496885,0,0,529
1452,3,2,82768.90761487493,0,0,527
1453,3,2,82768.91761478102,0,0,524
1454,3,2,82768.9276146871,0,0,522
1455,3,2,82768.93761459317,0,0,518
1456,3,2,82768.94761449927,0,0,515
1457,3,2,82768.95761440534,0,0,512
1458,3,2,82768.96761431143,0,0,509
1459,3,2,82768.97761421751,0,0,506
1460,3,2,82768.98761412359,0,0,504
1461,3,2,82768.99761402968,0,0,502
1462,3,2,82769.00761393576,0,0,499
1463,3,2,82769.01761384185,0,0,497
1464,3,2,82769.02761374792,0,0,494
1465,3,2,82769.037613654,0,0,492
1466,3,2,82769.04761356009,0,0,490
1467,3,2,82769.05761346617,0,0,487
1468,3,2,82769.06761337226,0,0,487
1469,3,2,82769.07761327834,0,0,485
1470,3,2,82769.08761318443,0,0,483
1471,3,2,82769.0976130905,0,0,481
1472,3,2,82769.10761299658,0,0,480
1473,3,2,82769.11761290267,0,0,479
1474,3,2,82769.12761280875,0,0,477
1475,3,2,82769.13761271484,0,0,474
1476,3,2,82769.14761262092,0,0,472
1477,3,2,82769.157612527,0,0,469
1478,3,2,82769.16761243308,0,0,467
1479,3,2,82769.17761233916,0,0,464
1480,3,2,82769.18761224525,0,0,460
1481,3,2,82769.19761215133,0,0,456
1482,3,2,82769.2076120574,0,0,452
1483,3,2,82769.2176119635,0,0,448
1484,3,2,82769.22761186957,0,0,444
1485,3,2,82769.23761177566,0,0,440
1486,3,2,82769.24761168174,0,0,436
1487,3,2,82769.25761158783,0,0,432
1488,3,2,82769.26761149391,0,0,429
1489,3,2,82769.27761139999,0,0,426
1490,3,2,82769.28761130608,0,0,423
1491,3,2,82769.29761121215,0,0,421
1492,3,2,82769.30761111825,0,0,420
1493,3,2,82769.31761102432,0,0,419
1494,3,2,82769.3276109304,0,0,418
1495,3,2,82769.33761083649,0,0,419
1496,3,2,82769.34761074257,0,0,419
1497,3,2,82769.35761064866,0,0,419
1498,3,2,82769.36761055473,0,0,421
1499,3,2,82769.37761046083,0,0,423
1500,3,2,82769.3876103669,0,0,425
1501,3,2,82769.39761027298,0,0,427
1502,3,2,82769.40761017907,0,0,431
1503,3,2,82769.41761008515,0,0,434
1504,3,2,82769.42760999124,0,0,439
1505,3,2,82769.43760989732,0,0,444
1506,3,2,82769.44760980339,0,0,451
1507,3,2,82769.45760970948,0,0,459
1508,3,2,82769.46760961556,0,0,467
1509,3,2,82769.47760952165,0,0,478
1510,3,2,82769.48760942773,0,0,488
1511,3,2,82769.4976093338,0,0,500
1512,3,2,82769.5076092399,0,0,512
1513,3,2,82769.51760914597,0,0,525
1514,3,2,82769.52760905206,0,0,537
1515,3,2,82769.53760895814,0,0,549
1516,3,2,82769.54760886423,0,0,561
1517,3,2,82769.55760877031,0,0,572
1518,3,2,82769.56760867639,0,0,584
1519,3,2,82769.57760858248,0,0,596
1520,3,2,82769.58760848855,0,0,609
1521,3,2,82769.59760839464,0,0,622
1522,3,2,82769.60760830072,0,0,635
1523,3,2,82769.6176082068,0,0,648
1524,3,2,82769.62760811289,0,0,660
1525,3,2,82769.63760801897,0,0,672
1526,3,2,82769.64760792506,0,0,682
1527,3,2,82769.65760783113,0,0,691
1528,3,2,82769.66760773721,0,0,699
1529,3,2,82769.6776076433,0,0,706
1530,3,2,82769.68760754938,0,0,711
1531,3,2,82769.69760745547,0,0,716
1532,3,2,82769.70760736155,0,0,721
1533,3,2,82769.71760726764,0,0,724
1534,3,2,82769.72760717371,0,0,726
1535,3,2,82769.73760707979,0,0,728
1536,3,2,82769.74760698588,0,0,729
1537,3,2,82769.75760689196,0,0,729
1538,3,2,82769.76760679805,0,0,728
1539,3,2,82769.77760670413,0,0,728
1540,3,2,82769.7876066102,0,0,727
1541,3,2,82769.7976065163,0,0,726
1542,3,2,82769.80760642237,0,0,725
1543,3,2,82769.81760632846,0,0,725
1544,3,2,82769.82760623454,0,0,726
1545,3,2,82769.83760614062,0,0,726
1546,3,2,82769.84760604671,0,0,727
1547,3,2,82769.85760595278,0,0,727
1548,3,2,82769.86760585888,0,0,728
1549,3,2,82769.87760576495,0,0,728
1550,3,2,82769.88760567104,0,0,730
1551,3,2,82769.89760557712,0,0,731
1552,3,2,82769.9076054832,0,0,732
1553,3,2,82769.91760538929,0,0,733
1554,3,2,82769.92760529536,0,0,734
1555,3,2,82769.93760520146,0,0,733
1556,3,2,82769.94760510753,0,0,733
1557,3,2,82769.95760501361,0,0,732
1558,3,2,82769.9676049197,0,0,730
1559,3,2,82769.97760482578,0,0,728
1560,3,2,82769.98760473187,0,0,726
1561,3,2,82769.99760463795,0,0,723
1562,3,2,82770.00760454402,0,0,720
1563,3,2,82770.01760445011,0,0,717
1564,3,2,82770.02760435619,0,0,714
1565,3,2,82770.03760426228,0,0,711
1566,3,2,82770.04760416836,0,0,708
1567,3,2,82770.05760407445,0,0,705
1568,3,2,82770.06760398053,0,0,703
1569,3,2,82770.0776038866,0,0,700
1570,3,2,82770.0876037927,0,0,699
1571,3,2,82770.09760369877,0,0,698
1572,3,2,82770.10760360486,0,0,698
1573,3,2,82770.11760351094,0,0,699
1574,3,2,82770.12760341702,0,0,700
1575,3,2,82770.1376033231,0,0,702
1576,3,2,82770.14760322918,0,0,703
1577,3,2,82770.15760313527,0,0,706
1578,3,2,82770.16760304135,0,0,708
1579,3,2,82770.17760294744,0,0,710
1580,3,2,82770.18760285352,0,0,710
1581,3,2,82770.1976027596,0,0,709
1582,3,2,82770.20760266569,0,0,706
1583,3,2,82770.21760257176,0,0,702
1584,3,2,82770.22760247785,0,0,696
1585,3,2,82770.23760238393,0,0,690
1586,3,2,82770.24760229001,0,0,683
1587,3,2,82770.2576021961,0,0,676
1588,3,2,82770.26760210218,0,0,669
1589,3,2,82770.27760200827,0,0,660
1590,3,2,82770.28760191434,0,0,650
1591,3,2,82770.29760182042,0,0,638
1592,3,2,82770.30760172651,0,0,625
1593,3,2,82770.31760163259,0,0,612
1594,3,2,82770.32760153868,0,0,600
1595,3,2,82770.33760144476,0,0,588
1596,3,2,82770.34760135085,0,0,576
1597,3,2,82770.35760125692,0,0,565
1598,3,2,82770.367601163,0,0,555
1599,3,2,82770.37760106909,0,0,544
1600,3,2,82770.38760097517,0,0,535
1601,3,2,82770.39760088126,0,0,526
1602,3,2,82770.40760078734,0,0,518
1603,3,2,82770.41760069341,0,0,511
1604,3,2,82770.4276005995,0,0,504
1605,3,2,82770.43760050558,0,0,499
1606,3,2,82770.44760041167,0,0,492
1607,3,2,82770.45760031775,0,0,488
1608,3,2,82770.46760022383,0,0,483
1609,3,2,82770.47760012992,0,0,479
1610,3,2,82770.487600036,0,0,476
1611,3,2,82770.49759994209,0,0,473
1612,3,2,82770.50759984816,0,0,471
1613,3,2,82770.51759975425,0,0,470
1614,3,2,82770.52759966033,0,0,470
1615,3,2,82770.5375995664,0,0,471
1616,3,2,82770.5475994725,0,0,473
1617,3,2,82770.55759937858,0,0,477
1618,3,2,82770.56759928467,0,0,482
1619,3,2,82770.57759919074,0,0,487
1620,3,2,82770.58759909682,0,0,495
1621,3,2,82770.59759900291,0,0,502
1622,3,2,82770.60759890899,0,0,510
1623,3,2,82770.61759881508,1,0,519
1624,3,2,82770.62759872116,0,0,527
1625,3,2,82770.63759862723,0,0,536
1626,3,2,82770.64759853332,0,0,544
1627,3,2,82770.6575984394,0,0,553
1628,3,2,82770.66759834549,0,0,562
1629,3,2,82770.67759825157,0,0,571
1630,3,2,82770.68759815766,0,0,579
1631,3,2,82770.69759806374,0,0,585
1632,3,2,82770.70759796981,0,0,591
1633,3,2,82770.7175978759,0,0,595
1634,3,2,82770.72759778198,0,0,597
1635,3,2,82770.73759768807,0,0,598
1636,3,2,82770.74759759415,0,0,597
1637,3,2,82770.75759750023,0,0,596
1638,3,2,82770.76759740632,0,0,593
1639,3,2,82770.7775973124,0,0,589
1640,3,2,82770.78759721848,1,0,583
1641,3,2,82770.79759712456,0,0,577
1642,3,2,82770.80759703065,0,0,568
1643,3,2,82770.81759693673,0,0,560
1644,3,2,82770.8275968428,0,0,551
1645,3,2,82770.8375967489,0,0,541
1646,3,2,82770.84759665497,0,0,532
1647,3,2,82770.85759656107,0,0,524
1648,3,2,82770.86759646714,0,0,516
1649,3,2,82770.87759637322,0,0,509
1650,3,2,82770.88759627931,0,0,502
1651,3,2,82770.89759618539,0,0,495
1652,3,2,82770.90759609148,0,0,489
1653,3,2,82770.91759599755,0,0,484
1654,3,2,82770.92759590363,0,0,480
1655,3,2,82770.93759580972,0,0,477
1656,3,2,82770.9475957158,0,0,475
1657,3,2,82770.95759562189,1,0,476
1658,3,2,82770.96759552797,0,0,477
1659,3,2,82770.97759543406,0,0,480
1660,3,2,82770.98759534014,0,0,484
1661,3,2,82770.99759524621,0,0,488
1662,3,2,82771.0075951523,0,0,493
1663,3,2,82771.01759505838,0,0,499
1664,3,2,82771.02759496447,0,0,505
1665,3,2,82771.03759487055,0,0,511
1666,3,2,82771.04759477662,1,0,516
1667,3,2,82771.05759468272,0,0,522
1668,3,2,82771.06759458879,0,0,527
1669,3,2,82771.07759449488,0,0,532
1670,3,2,82771.08759440096,0,0,536
1671,3,2,82771.09759430704,0,0,538
1672,3,2,82771.10759421313,0,0,540
1673,3,2,82771.1175941192,0,0,543
1674,3,2,82771.1275940253,0,0,543
1675,3,2,82771.13759393137,0,0,544
1676,3,2,82771.14759383746,0,0,544
1677,3,2,82771.15759374354,0,0,544
1678,3,2,82771.16759364962,0,0,542
1679,3,2,82771.17759355571,0,0,539
1680,3,2,82771.18759346179,0,0,536
1681,3,2,82771.19759336788,0,0,532
1682,3,2,82771.20759327395,0,0,528
1683,3,2,82771.21759318003,0,0,524
1684,3,2,82771.22759308612,0,0,519
1685,3,2,82771.2375929922,0,0,515
1686,3,2,82771.24759289829,0,0,511
1687,3,2,82771.25759280437,0,0,505
1688,3,2,82771.26759271044,0,0,499
1689,3,2,82771.27759261653,0,0,493
1690,3,2,82771.28759252261,0,0,488
1691,3,2,82771.2975924287,0,0,485
1692,3,2,82771.30759233478,0,0,482
1693,3,2,82771.31759224087,0,0,480
1694,3,2,82771.32759214695,0,0,477
1695,3,2,82771.33759205302,0,0,475
1696,3,2,82771.34759195911,0,0,473
1697,3,2,82771.35759186519,0,0,473
1698,3,2,82771.36759177128,0,0,474
1699,3,2,82771.37759167736,0,0,476
1700,3,2,82771.38759158344,0,0,479
1701,3,2,82771.39759148953,0,0,484
1702,3,2,82771.4075913956,0,0,489
1703,3,2,82771.4175913017,0,0,494
1704,3,2,82771.42759120777,0,0,499
1705,3,2,82771.43759111385,0,0,504
1706,3,2,82771.44759101994,0,0,507
1707,3,2,82771.45759092602,0,0,509
1708,3,2,82771.46759083211,0,0,510
1709,3,2,82771.47759073818,0,0,512
1710,3,2,82771.48759064428,0,0,513
1711,3,2,82771.49759055035,0,0,513
1712,3,2,82771.50759045643,0,0,513
1713,3,2,82771.51759036252,0,0,513
1714,3,2,82771.5275902686,0,0,512
1715,3,2,82771.53759017469,0,0,513
1716,3,2,82771.54759008077,0,0,512
1717,3,2,82771.55758998684,0,0,514
1718,3,2,82771.56758989293,0,0,515
1719,3,2,82771.57758979901,0,0,516
1720,3,2,82771.5875897051,0,0,516
1721,3,2,82771.59758961118,0,0,516
1722,3,2,82771.60758951727,0,0,515
1723,3,2,82771.61758942335,0,0,514
1724,3,2,82771.62758932942,0,0,512
1725,3,2,82771.63758923551,0,0,510
1726,3,2,82771.64758914159,0,0,509
1727,3,2,82771.65758904768,0,0,507
1728,3,2,82771.66758895376,0,0,506
1729,3,2,82771.67758885983,0,0,505
1730,3,2,82771.68758876593,0,0,505
1731,3,2,82771.697588672,0,0,506
1732,3,2,82771.7075885781,0,0,507
1733,3,2,82771.71758848417,0,0,508
1734,3,2,82771.72758839025,0,0,509
1735,3,2,82771.73758829634,0,0,511
1736,3,2,82771.74758820242,0,0,512
1737,3,2,82771.7575881085,0,0,513
1738,3,2,82771.76758801458,0,0,515
1739,3,2,82771.77758792067,0,0,515
1740,3,2,82771.78758782675,0,0,517
1741,3,2,82771.79758773283,0,0,518
1742,3,2,82771.80758763892,0,0,519
1743,3,2,82771.817587545,0,0,521
1744,3,2,82771.82758745109,0,0,522
1745,3,2,82771.83758735716,0,0,523
1746,3,2,82771.84758726324,0,0,524
1747,3,2,82771.85758716933,0,0,523
1748,3,2,82771.86758707541,0,0,521
1749,3,2,82771.8775869815,0,0,519
1750,3,2,82771.88758688758,0,0,518
1751,3,2,82771.89758679365,0,0,516
1752,3,2,82771.90758669974,0,0,514
1753,3,2,82771.91758660582,0,0,513
1754,3,2,82771.92758651191,0,0,512
1755,3,2,82771.93758641799,0,0,510
1756,3,2,82771.94758632408,0,0,508
1757,3,2,82771.95758623016,0,0,508
1758,3,2,82771.96758613623,0,0,507
1759,3,2,82771.97758604233,0,0,506
1760,3,2,82771.9875859484,0,0,505
1761,3,2,82771.9975858545,0,0,504
1762,3,2,82772.00758576057,0,0,503
1763,3,2,82772.01758566665,0,0,502
1764,3,2,82772.02758557274,0,0,500
1765,3,2,82772.03758547881,0,0,498
1766,3,2,82772.0475853849,0,0,496
1767,3,2,82772.05758529098,0,0,494
1768,3,2,82772.06758519706,0,0,493
1769,3,2,82772.07758510315,0,0,492
1770,3,2,82772.08758500923,0,0,491
1771,3,2,82772.09758491532,0,0,489
1772,3,2,82772.1075848214,0,0,487
1773,3,2,82772.11758472749,0,0,484
1774,3,2,82772.12758463356,0,0,481
1775,3,2,82772.13758453964,0,0,477
1776,3,2,82772.14758444573,0,0,472
1777,3,2,82772.15758435181,0,0,468
1778,3,2,82772.1675842579,0,0,463
1779,3,2,82772.17758416398,0,0,460
1780,3,2,82772.18758407005,0,0,456
1781,3,2,82772.19758397614,0,0,453
1782,3,2,82772.20758388222,0,0,449
1783,3,2,82772.21758378831,0,0,446
1784,3,2,82772.22758369439,0,0,443
1785,3,2,82772.23758360048,0,0,440
1786,3,2,82772.24758350656,0,0,437
1787,3,2,82772.25758341263,0,0,435
1788,3,2,82772.26758331872,0,0,433
1789,3,2,82772.2775832248,0,0,432
1790,3,2,82772.28758313089,0,0,431
1791,3,2,82772.29758303697,0,0,430
1792,3,2,82772.30758294305,0,0,428
1793,3,2,82772.31758284914,0,0,427
1794,3,2,82772.32758275521,0,0,426
1795,3,2,82772.3375826613,0,0,425
1796,3,2,82772.34758256738,0,0,423
1797,3,2,82772.35758247346,0,0,423
1798,3,2,82772.36758237955,0,0,421
1799,3,2,82772.37758228563,0,0,420
1800,3,2,82772.38758219172,0,0,417
1801,3,2,82772.3975820978,0,0,415
1802,3,2,82772.40758200389,0,0,413
1803,3,2,82772.41758190996,0,0,412
1804,3,2,82772.42758181604,0,0,410
1805,3,2,82772.43758172213,0,0,408
1806,3,2,82772.4475816282,0,0,407
1807,3,2,82772.4575815343,0,0,405
1808,3,2,82772.46758144037,0,0,404
1809,3,2,82772.47758134645,0,0,403
1810,3,2,82772.48758125254,0,0,403
1811,3,2,82772.49758115862,0,0,401
1812,3,2,82772.50758106471,0,0,400
1813,3,2,82772.51758097079,0,0,399
1814,3,2,82772.52758087686,0,0,398
1815,3,2,82772.53758078296,0,0,396
1816,3,2,82772.54758068903,0,0,395
1817,3,2,82772.55758059512,0,0,395
1818,3,2,82772.5675805012,0,0,394
1819,3,2,82772.57758040729,0,0,393
1820,3,2,82772.58758031337,0,0,393
1821,3,2,82772.59758021944,0,0,393
1822,3,2,82772.60758012554,0,0,391
1823,3,2,82772.61758003161,0,0,392
1824,3,2,82772.6275799377,0,0,392
1825,3,2,82772.63757984378,0,0,393
1826,3,2,82772.64757974986,0,0,394
1827,3,2,82772.65757965595,0,0,394
1828,3,2,82772.66757956202,0,0,394
1829,3,2,82772.67757946812,0,0,393
1830,3,2,82772.6875793742,0,0,392
1831,3,2,82772.69757928027,0,0,390
1832,3,2,82772.70757918636,0,0,388
1833,3,2,82772.71757909244,0,0,385
1834,3,2,82772.72757899853,0,0,383
1835,3,2,82772.7375789046,0,0,380
1836,3,2,82772.7475788107,0,0,378
1837,3,2,82772.75757871677,0,0,376
1838,3,2,82772.76757862285,0,0,376
1839,3,2,82772.77757852894,0,0,373
1840,3,2,82772.78757843502,0,0,373
1841,3,2,82772.79757834111,0,0,373
1842,3,2,82772.80757824719,0,0,374
1843,3,2,82772.81757815326,0,0,376
1844,3,2,82772.82757805935,0,0,379
1845,3,2,82772.83757796543,0,0,383
1846,3,2,82772.84757787152,0,0,386
1847,3,2,82772.8575777776,0,0,390
1848,3,2,82772.86757768369,0,0,396
1849,3,2,82772.87757758977,0,0,404
1850,3,2,82772.88757749584,0,0,413
1851,3,2,82772.89757740193,0,0,423
1852,3,2,82772.90757730801,0,0,433
1853,3,2,82772.9175772141,0,0,443
1854,3,2,82772.92757712018,0,0,454
1855,3,2,82772.93757702626,0,0,462
1856,3,2,82772.94757693235,0,0,470
1857,3,2,82772.95757683842,0,0,476
1858,3,2,82772.96757674452,0,0,481
1859,3,2,82772.97757665059,0,0,484
1860,3,2,82772.98757655667,0,0,487
1861,3,2,82772.99757646276,0,0,491
1862,3,2,82773.00757636884,0,0,493
1863,3,2,82773.01757627493,0,0,496
1864,3,2,82773.027576181,0,0,498
1865,3,2,82773.0375760871,0,0,499
1866,3,2,82773.04757599317,0,0,499
1867,3,2,82773.05757589925,0,0,498
1868,3,2,82773.06757580534,0,0,498
1869,3,2,82773.07757571142,0,0,497
1870,3,2,82773.08757561751,0,0,496
1871,3,2,82773.09757552358,0,0,493
1872,3,2,82773.10757542966,0,0,491
1873,3,2,82773.11757533575,0,0,489
1874,3,2,82773.12757524183,0,0,486
1875,3,2,82773.13757514792,0,0,483
1876,3,2,82773.147575054,0,0,479
1877,3,2,82773.15757496007,0,0,476
1878,3,2,82773.16757486617,0,0,472
1879,3,2,82773.17757477224,0,0,469
1880,3,2,82773.18757467833,0,0,465
1881,3,2,82773.19757458441,0,0,461
1882,3,2,82773.2075744905,0,0,456
1883,3,2,82773.21757439658,0,0,453
1884,3,2,82773.22757430265,0,0,450
1885,3,2,82773.23757420875,0,0,447
1886,3,2,82773.24757411482,0,0,445
1887,3,2,82773.25757402091,0,0,442
1888,3,2,82773.26757392699,0,0,439
1889,3,2,82773.27757383307,0,0,436
1890,3,2,82773.28757373916,0,0,433
1891,3,2,82773.29757364524,0,0,430
1892,3,2,82773.30757355133,0,0,429
1893,3,2,82773.3175734574,0,0,429
1894,3,2,82773.32757336348,0,0,430
1895,3,2,82773.33757326957,0,0,432
1896,3,2,82773.34757317565,0,0,435
1897,3,2,82773.35757308174,0,0,438
1898,3,2,82773.36757298782,0,0,441
1899,3,2,82773.3775728939,0,0,444
1900,3,2,82773.38757279998,0,0,446
1901,3,2,82773.39757270606,0,0,448
1902,3,2,82773.40757261215,0,0,448
1903,3,2,82773.41757251823,0,0,449
1904,3,2,82773.42757242432,0,0,451
1905,3,2,82773.4375723304,0,0,451
1906,3,2,82773.44757223647,0,0,452
1907,3,2,82773.45757214256,0,0,451
1908,3,2,82773.46757204864,0,0,450
1909,3,2,82773.47757195473,0,0,448
1910,3,2,82773.48757186081,0,0,446
1911,3,2,82773.49757176689,0,0,444
1912,3,2,82773.50757167298,0,0,442
1913,3,2,82773.51757157905,0,0,440
1914,3,2,82773.52757148515,0,0,438
1915,3,2,82773.53757139122,0,0,438
1916,3,2,82773.54757129731,0,0,437
1917,3,2,82773.55757120339,0,0,437
1918,3,2,82773.56757110947,0,0,438
1919,3,2,82773.57757101556,0,0,439
1920,3,2,82773.58757092163,0,0,440
1921,3,2,82773.59757082773,0,0,441
1922,3,2,82773.6075707338,0,0,444
1923,3,2,82773.61757063988,0,0,446
1924,3,2,82773.62757054597,0,0,448
1925,3,2,82773.63757045205,0,0,450
1926,3,2,82773.64757035814,0,0,451
1927,3,2,82773.65757026421,0,0,453
1928,3,2,82773.6675701703,0,0,455
1929,3,2,82773.67757007638,0,0,457
1930,3,2,82773.68756998246,0,0,459
1931,3,2,82773.69756988855,0,0,461
1932,3,2,82773.70756979463,1,0,462
1933,3,2,82773.71756970072,0,0,463
1934,3,2,82773.7275696068,0,0,464
1935,3,2,82773.73756951287,0,0,463
1936,3,2,82773.74756941896,0,0,464
1937,3,2,82773.75756932504,0,0,463
1938,3,2,82773.76756923113,0,0,463
1939,3,2,82773.77756913721,0,0,463
1940,3,2,82773.78756904328,0,0,464
1941,3,2,82773.79756894938,0,0,465
1942,3,2,82773.80756885545,0,0,465
1943,3,2,82773.81756876154,0,0,467
1944,3,2,82773.82756866762,0,0,468
1945,3,2,82773.83756857371,0,0,468
1946,3,2,82773.84756847979,0,0,469
1947,3,2,82773.85756838587,0,0,470
1948,3,2,82773.86756829196,0,0,470
1949,3,2,82773.87756819803,0,0,470
1950,3,2,82773.88756810412,0,0,471
1951,3,2,82773.8975680102,0,0,471
1952,3,2,82773.90756791628,0,0,472
1953,3,2,82773.91756782237,0,0,471
1954,3,2,82773.92756772845,0,0,472
1955,3,2,82773.93756763454,0,0,471
1956,3,2,82773.94756754061,0,0,471
1957,3,2,82773.95756744669,0,0,471
1958,3,2,82773.96756735278,0,0,470
1959,3,2,82773.97756725886,0,0,470
1960,3,2,82773.98756716495,0,0,470
1961,3,2,82773.99756707103,0,0,469
1962,3,2,82774.00756697712,0,0,468
1963,3,2,82774.0175668832,0,0,467
1964,3,2,82774.02756678927,0,0,467
1965,3,2,82774.03756669536,0,0,467
1966,3,2,82774.04756660144,0,0,466
1967,3,2,82774.05756650753,0,0,465
1968,3,2,82774.0675664136,0,0,465
1969,3,2,82774.07756631968,0,0,465
1970,3,2,82774.08756622577,0,0,464
1971,3,2,82774.09756613185,0,0,464
1972,3,2,82774.10756603794,0,0,463
1973,3,2,82774.11756594402,0,0,464
1974,3,2,82774.1275658501,0,0,463
1975,3,2,82774.13756575619,0,0,464
1976,3,2,82774.14756566226,0,0,465
1977,3,2,82774.15756556836,0,0,465
1978,3,2,82774.16756547443,0,0,465
1979,3,2,82774.17756538052,0,0,465
1980,3,2,82774.1875652866,0,0,466
1981,3,2,82774.19756519268,0,0,466
1982,3,2,82774.20756509877,0,0,467
1983,3,2,82774.21756500484,0,0,468
1984,3,2,82774.22756491094,1,0,468
1985,3,2,82774.23756481701,0,0,471
1986,3,2,82774.24756472309,0,0,473
1987,3,2,82774.25756462918,0,0,476
1988,3,2,82774.26756453526,0,0,479
1989,3,2,82774.27756444135,0,0,481
1990,3,2,82774.28756434743,0,0,483
1991,3,2,82774.29756425352,0,0,486
1992,3,2,82774.3075641596,0,0,488
1993,3,2,82774.31756406567,0,0,491
1994,3,2,82774.32756397176,0,0,493
1995,3,2,82774.33756387784,0,0,495
1996,3,2,82774.34756378393,0,0,496
1997,3,2,82774.35756369,0,0,498
1998,3,2,82774.36756359608,0,0,499
1999,3,2,82774.37756350217,0,0,501
2000,3,2,82774.38756340825,0,0,502
2001,3,2,82774.39756331434,0,0,504
2002,3,2,82774.40756322042,0,0,504
2003,3,2,82774.4175631265,0,0,506
2004,3,2,82774.42756303259,0,0,507
2005,3,2,82774.43756293866,0,0,509
2006,3,2,82774.44756284475,0,0,510
2007,3,2,82774.45756275083,0,0,511
2008,3,2,82774.46756265692,0,0,513
2009,3,2,82774.477562563,0,0,515
2010,3,2,82774.48756246908,0,0,516
2011,3,2,82774.49756237517,0,0,518
2012,3,2,82774.50756228124,0,0,519
2013,3,2,82774.51756218733,0,0,519
2014,3,2,82774.52756209341,0,0,520
2015,3,2,82774.53756199949,0,0,521
2016,3,2,82774.54756190558,0,0,521
2017,3,2,82774.55756181166,0,0,522
2018,3,2,82774.56756171775,0,0,523
2019,3,2,82774.57756162382,1,0,523
2020,3,2,82774.5875615299,0,0,524
2021,3,2,82774.59756143599,0,0,525
2022,3,2,82774.60756134207,0,0,526
2023,3,2,82774.61756124816,0,0,528
2024,3,2,82774.62756115424,0,0,531
2025,3,2,82774.63756106033,0,0,533
2026,3,2,82774.6475609664,0,0,536
2027,3,2,82774.65756087248,0,0,540
2028,3,2,82774.66756077857,0,0,543
2029,3,2,82774.67756068465,0,0,546
2030,3,2,82774.68756059074,0,0,549
2031,3,2,82774.69756049682,0,0,551
2032,3,2,82774.7075604029,0,0,552
2033,3,2,82774.71756030899,0,0,552
2034,3,2,82774.72756021506,0,0,551
2035,3,2,82774.73756012115,0,0,550
2036,3,2,82774.74756002723,1,0,547
2037,3,2,82774.7575599333,0,0,544
2038,3,2,82774.7675598394,0,0,541
2039,3,2,82774.77755974547,0,0,539
2040,3,2,82774.78755965157,0,0,536
2041,3,2,82774.79755955764,0,0,534
2042,3,2,82774.80755946373,0,0,531
2043,3,2,82774.81755936981,0,0,530
2044,3,2,82774.82755927589,0,0,530
2045,3,2,82774.83755918198,0,0,529
2046,3,2,82774.84755908806,0,0,529
2047,3,2,82774.85755899415,0,0,530
2048,3,2,82774.86755890022,0,0,531
2049,3,2,82774.8775588063,0,0,533
2050,3,2,82774.88755871239,0,0,535
2051,3,2,82774.89755861847,0,0,536
2052,3,2,82774.90755852456,0,0,537
2053,3,2,82774.91755843064,0,0,538
2054,3,2,82774.92755833671,0,0,539
2055,3,2,82774.9375582428,0,0,540
2056,3,2,82774.94755814888,0,0,541
2057,3,2,82774.95755805497,0,0,543
2058,3,2,82774.96755796105,0,0,546
2059,3,2,82774.97755786714,0,0,549
2060,3,2,82774.98755777322,0,0,553
2061,3,2,82774.9975576793,0,0,556
2062,3,2,82775.00755758538,0,0,559
2063,3,2,82775.01755749146,0,0,561
2064,3,2,82775.02755739755,0,0,562
2065,3,2,82775.03755730363,0,0,561
2066,3,2,82775.0475572097,0,0,561
2067,3,2,82775.0575571158,0,0,559
2068,3,2,82775.06755702187,0,0,556
2069,3,2,82775.07755692796,0,0,554
2070,3,2,82775.08755683404,0,0,551
2071,3,2,82775.09755674013,0,0,548
2072,3,2,82775.10755664621,0,0,545
2073,3,2,82775.11755655229,0,0,543
2074,3,2,82775.12755645838,0,0,540
2075,3,2,82775.13755636445,0,0,536
2076,3,2,82775.14755627055,0,0,535
2077,3,2,82775.15755617662,0,0,533
2078,3,2,82775.1675560827,0,0,531
2079,3,2,82775.17755598879,0,0,530
2080,3,2,82775.18755589487,0,0,529
2081,3,2,82775.19755580096,0,0,528
2082,3,2,82775.20755570703,0,0,528
2083,3,2,82775.21755561311,0,0,528
2084,3,2,82775.2275555192,0,0,529
2085,3,2,82775.23755542528,0,0,530
2086,3,2,82775.24755533137,0,0,531
2087,3,2,82775.25755523745,0,0,531
2088,3,2,82775.26755514354,0,0,531
2089,3,2,82775.27755504962,0,0,531
2090,3,2,82775.28755495569,0,0,529
2091,3,2,82775.29755486178,0,0,527
2092,3,2,82775.30755476786,0,0,524
2093,3,2,82775.31755467395,0,0,521
2094,3,2,82775.32755458003,0,0,518
2095,3,2,82775.3375544861,0,0,516
2096,3,2,82775.3475543922,0,0,514
2097,3,2,82775.35755429827,0,0,512
2098,3,2,82775.36755420436,0,0,510
2099,3,2,82775.37755411044,0,0,508
2100,3,2,82775.38755401652,0,0,508
2101,3,2,82775.39755392261,0,0,507
2102,3,2,82775.40755382869,0,0,506
2103,3,2,82775.41755373478,0,0,506
2104,3,2,82775.42755364085,0,0,507
2105,3,2,82775.43755354694,0,0,508
2106,3,2,82775.44755345302,0,0,509
2107,3,2,82775.4575533591,0,0,510
2108,3,2,82775.46755326519,0,0,512
2109,3,2,82775.47755317127,0,0,514
2110,3,2,82775.48755307736,0,0,516
2111,3,2,82775.49755298343,0,0,518
2112,3,2,82775.50755288951,0,0,519
2113,3,2,82775.5175527956,0,0,520
2114,3,2,82775.52755270168,0,0,522
2115,3,2,82775.53755260777,0,0,524
2116,3,2,82775.54755251385,0,0,524
2117,3,2,82775.55755241992,0,0,525
2118,3,2,82775.56755232601,0,0,526
2119,3,2,82775.57755223209,0,0,527
2120,3,2,82775.58755213818,0,0,528
2121,3,2,82775.59755204426,0,0,529
2122,3,2,82775.60755195035,0,0,529
2123,3,2,82775.61755185643,0,0,529
2124,3,2,82775.6275517625,0,0,530
2125,3,2,82775.6375516686,0,0,530
2126,3,2,82775.64755157467,0,0,530
2127,3,2,82775.65755148076,0,0,530
2128,3,2,82775.66755138684,0,0,531
2129,3,2,82775.67755129292,0,0,531
2130,3,2,82775.68755119901,0,0,531
2131,3,2,82775.69755110508,0,0,531
2132,3,2,82775.70755101118,0,0,530
2133,3,2,82775.71755091725,0,0,529
2134,3,2,82775.72755082334,0,0,529
2135,3,2,82775.73755072942,0,0,528
2136,3,2,82775.7475506355,0,0,527
2137,3,2,82775.75755054159,0,0,526
2138,3,2,82775.76755044766,0,0,525
2139,3,2,82775.77755035376,0,0,524
2140,3,2,82775.78755025983,0,0,523
2141,3,2,82775.79755016591,0,0,522
2142,3,2,82775.807550072,0,0,520
2143,3,2,82775.81754997808,0,0,519
2144,3,2,82775.82754988417,0,0,518
2145,3,2,82775.83754979025,0,0,517
2146,3,2,82775.84754969632,0,0,515
2147,3,2,82775.85754960241,0,0,513
2148,3,2,82775.86754950849,0,0,511
2149,3,2,82775.87754941458,0,0,509
2150,3,2,82775.88754932066,0,0,508
2151,3,2,82775.89754922675,0,0,506
2152,3,2,82775.90754913283,0,0,505
2153,3,2,82775.9175490389,0,0,504
2154,3,2,82775.927548945,0,0,502
2155,3,2,82775.93754885107,0,0,500
2156,3,2,82775.94754875716,0,0,498
2157,3,2,82775.95754866324,0,0,497
2158,3,2,82775.96754856932,0,0,496
2159,3,2,82775.9775484754,0,0,494
2160,3,2,82775.98754838148,0,1,493
2161,3,2,82775.99754828757,0,0,492
2162,3,2,82776.00754819365,0,0,492
2163,3,2,82776.01754809973,0,0,491
2164,3,2,82776.02754800582,0,0,491
2165,3,2,82776.0375479119,0,0,491
2166,3,2,82776.04754781799,0,0,490
2167,3,2,82776.05754772406,0,0,489
2168,3,2,82776.06754763015,0,0,489
2169,3,2,82776.07754753623,0,0,488
2170,3,2,82776.08754744231,0,0,488
2171,3,2,82776.0975473484,0,0,488
2172,3,2,82776.10754725448,0,0,487
2173,3,2,82776.11754716057,0,0,487
2174,3,2,82776.12754706664,0,0,487
2175,3,2,82776.13754697272,0,0,487
2176,3,2,82776.14754687881,0,0,487
2177,3,2,82776.15754678489,0,0,488
2178,3,2,82776.16754669098,0,0,488
2179,3,2,82776.17754659706,0,0,489
2180,3,2,82776.18754650313,0,0,489
2181,3,2,82776.19754640922,0,0,489
2182,3,2,82776.2075463153,0,0,489
2183,3,2,82776.21754622139,0,0,488
2184,3,2,82776.22754612747,0,0,488
2185,3,2,82776.23754603356,0,0,487
2186,3,2,82776.24754593964,0,0,487
2187,3,2,82776.25754584571,0,0,487
2188,3,2,82776.2675457518,0,0,487
2189,3,2,82776.27754565788,0,0,487
2190,3,2,82776.28754556397,0,0,487
2191,3,2,82776.29754547005,0,0,488
2192,3,2,82776.30754537613,0,0,487
2193,3,2,82776.31754528222,0,0,489
2194,3,2,82776.3275451883,0,0,489
2195,3,2,82776.33754509439,0,0,490
2196,3,2,82776.34754500046,0,0,491
2197,3,2,82776.35754490655,0,0,492
2198,3,2,82776.36754481263,0,0,493
2199,3,2,82776.3775447187,0,0,493
2200,3,2,82776.3875446248,0,0,494
2201,3,2,82776.39754453088,0,0,495
2202,3,2,82776.40754443697,0,0,496
2203,3,2,82776.41754434304,0,0,496
2204,3,2,82776.42754424912,0,0,497
2205,3,2,82776.43754415521,0,0,497
2206,3,2,82776.44754406129,0,0,497
2207,3,2,82776.45754396738,0,0,498
2208,3,2,82776.46754387346,0,0,499
2209,3,2,82776.47754377953,0,0,499
2210,3,2,82776.48754368562,0,0,499
2211,3,2,82776.4975435917,0,0,500
2212,3,2,82776.50754349779,0,0,501
2213,3,2,82776.51754340387,0,0,500
2214,3,2,82776.52754330996,0,0,501
2215,3,2,82776.53754321604,0,0,502
2216,3,2,82776.54754312211,0,0,502
2217,3,2,82776.5575430282,0,0,503
2218,3,2,82776.56754293428,0,0,504
2219,3,2,82776.57754284037,0,0,504
2220,3,2,82776.58754274645,0,0,504
2221,3,2,82776.59754265253,0,0,505
2222,3,2,82776.60754255862,0,0,505
2223,3,2,82776.6175424647,0,0,505
2224,3,2,82776.62754237078,0,0,505
2225,3,2,82776.63754227686,0,0,506
2226,3,2,82776.64754218294,0,0,506
2227,3,2,82776.65754208903,0,0,507
2228,3,2,82776.6675419951,0,0,507
2229,3,2,82776.6775419012,0,0,509
2230,3,2,82776.68754180727,0,0,509
2231,3,2,82776.69754171337,0,0,510
2232,3,2,82776.70754161944,0,0,509
2233,3,2,82776.71754152552,0,0,509
2234,3,2,82776.72754143161,0,0,510
2235,3,2,82776.73754133769,0,0,509
2236,3,2,82776.74754124378,0,0,509
2237,3,2,82776.75754114985,0,0,510
2238,3,2,82776.76754105593,0,0,510
2239,3,2,82776.77754096202,0,0,511
2240,3,2,82776.7875408681,0,0,511
2241,3,2,82776.79754077419,0,0,511
2242,3,2,82776.80754068027,0,0,511
2243,3,2,82776.81754058634,0,0,510
2244,3,2,82776.82754049244,0,0,510
2245,3,2,82776.83754039851,0,0,510
2246,3,2,82776.8475403046,0,0,510
2247,3,2,82776.85754021068,0,0,511
2248,3,2,82776.86754011677,0,0,511
2249,3,2,82776.87754002285,0,0,512
2250,3,2,82776.88753992892,0,0,513
2251,3,2,82776.89753983502,0,0,514
2252,3,2,82776.90753974109,0,0,515
2253,3,2,82776.91753964718,0,0,515
2254,3,2,82776.92753955326,0,0,515
2255,3,2,82776.93753945934,0,0,514
2256,3,2,82776.94753936543,0,0,515
2257,3,2,82776.9575392715,0,0,514
2258,3,2,82776.9675391776,0,0,514
2259,3,2,82776.97753908367,0,0,514
2260,3,2,82776.98753898975,0,0,515
2261,3,2,82776.99753889584,0,0,515
2262,3,2,82777.00753880192,0,0,514
2263,3,2,82777.01753870801,0,0,515
2264,3,2,82777.02753861409,0,0,515
2265,3,2,82777.03753852018,0,0,516
2266,3,2,82777.04753842625,0,0,516
2267,3,2,82777.05753833233,0,0,517
2268,3,2,82777.06753823842,0,0,518
2269,3,2,82777.0775381445,0,0,518
2270,3,2,82777.08753805059,0,0,519
2271,3,2,82777.09753795667,0,0,520
2272,3,2,82777.10753786274,0,0,520
2273,3,2,82777.11753776883,0,0,521
2274,3,2,82777.12753767491,0,0,522
2275,3,2,82777.137537581,0,0,522
2276,3,2,82777.14753748708,0,0,523
2277,3,2,82777.15753739317,0,0,523
2278,3,2,82777.16753729925,0,0,524
2279,3,2,82777.17753720532,0,0,524
2280,3,2,82777.18753711141,0,0,525
2281,3,2,82777.19753701749,0,0,527
2282,3,2,82777.20753692358,0,0,527
2283,3,2,82777.21753682966,0,0,528
2284,3,2,82777.22753673574,0,0,529
2285,3,2,82777.23753664183,0,0,530
2286,3,2,82777.2475365479,0,0,531
2287,3,2,82777.257536454,0,0,531
2288,3,2,82777.26753636007,0,0,532
2289,3,2,82777.27753626615,0,0,533
2290,3,2,82777.28753617224,0,0,534
2291,3,2,82777.29753607832,0,0,535
2292,3,2,82777.30753598441,0,0,536
2293,3,2,82777.31753589048,0,0,536
2294,3,2,82777.32753579658,0,0,536
2295,3,2,82777.33753570265,0,0,537
2296,3,2,82777.34753560873,0,0,537
2297,3,2,82777.35753551482,0,0,537
2298,3,2,82777.3675354209,0,0,538
2299,3,2,82777.37753532699,0,0,539
2300,3,2,82777.38753523307,0,0,540
2301,3,2,82777.39753513914,0,0,540
2302,3,2,82777.40753504523,0,0,540
2303,3,2,82777.41753495131,0,0,541
2304,3,2,82777.4275348574,0,0,541
2305,3,2,82777.43753476348,0,0,542
2306,3,2,82777.44753466955,0,0,542
2307,3,2,82777.45753457565,0,0,542
2308,3,2,82777.46753448172,0,0,542
2309,3,2,82777.47753438781,0,0,542
2310,3,2,82777.48753429389,0,0,542
2311,3,2,82777.49753419998,0,0,542
2312,3,2,82777.50753410606,0,0,542
2313,3,2,82777.51753401214,0,0,543
2314,3,2,82777.52753391823,0,0,543
2315,3,2,82777.5375338243,0,0,543
2316,3,2,82777.5475337304,0,0,543
2317,3,2,82777.55753363647,0,0,543
2318,3,2,82777.56753354255,0,0,543
2319,3,2,82777.57753344864,0,0,543
2320,3,2,82777.58753335472,0,0,543
2321,3,2,82777.5975332608,0,0,542
2322,3,2,82777.60753316688,0,0,542
2323,3,2,82777.61753307296,0,0,542
2324,3,2,82777.62753297905,0,0,541
2325,3,2,82777.63753288513,0,0,541
2326,3,2,82777.64753279122,0,0,540
2327,3,2,82777.6575326973,0,0,540
2328,3,2,82777.66753260339,0,0,540
2329,3,2,82777.67753250946,0,0,539
2330,3,2,82777.68753241554,0,0,539
2331,3,2,82777.69753232163,0,0,538
2332,3,2,82777.70753222771,0,0,537
2333,3,2,82777.7175321338,0,0,536
2334,3,2,82777.72753203988,0,0,536
2335,3,2,82777.73753194595,0,0,536
2336,3,2,82777.74753185204,0,0,536
2337,3,2,82777.75753175812,0,0,536
2338,3,2,82777.76753166421,0,0,535
2339,3,2,82777.77753157029,0,0,534
2340,3,2,82777.78753147638,0,0,533
2341,3,2,82777.79753138246,0,0,532
2342,3,2,82777.80753128853,0,0,530
2343,3,2,82777.81753119463,0,0,529
2344,3,2,82777.8275311007,0,0,527
2345,3,2,82777.8375310068,0,0,527
2346,3,2,82777.84753091287,0,0,527
2347,3,2,82777.85753081895,0,0,526
2348,3,2,82777.86753072504,0,0,526
2349,3,2,82777.87753063111,0,0,526
2350,3,2,82777.8875305372,0,0,526
2351,3,2,82777.89753044328,0,0,526
2352,3,2,82777.90753034936,0,0,526
2353,3,2,82777.91753025545,0,0,527
2354,3,2,82777.92753016153,0,0,527
2355,3,2,82777.93753006762,0,0,527
2356,3,2,82777.9475299737,0,0,527
2357,3,2,82777.95752987979,0,0,527
2358,3,2,82777.96752978586,0,0,527
2359,3,2,82777.97752969194,0,0,528
2360,3,2,82777.98752959803,0,0,527
2361,3,2,82777.99752950411,0,0,528
2362,3,2,82778.0075294102,0,0,529
2363,3,2,82778.01752931628,1,0,529
2364,3,2,82778.02752922235,0,0,530
2365,3,2,82778.03752912844,0,0,531
2366,3,2,82778.04752903452,0,0,531
2367,3,2,82778.05752894061,0,0,531
2368,3,2,82778.06752884669,0,0,531
2369,3,2,82778.07752875276,0,0,532
2370,3,2,82778.08752865886,0,0,533
2371,3,2,82778.09752856493,0,0,534
2372,3,2,82778.10752847102,0,0,535
2373,3,2,82778.1175283771,0,0,537
2374,3,2,82778.12752828319,0,0,539
2375,3,2,82778.13752818927,0,0,542
2376,3,2,82778.14752809535,0,0,545
2377,3,2,82778.15752800144,0,0,549
2378,3,2,82778.16752790751,0,0,554
2379,3,2,82778.1775278136,0,0,559
2380,3,2,82778.18752771968,0,0,564
2381,3,2,82778.19752762576,0,0,569
2382,3,2,82778.20752753185,0,0,575
2383,3,2,82778.21752743793,0,0,581
2384,3,2,82778.22752734402,0,0,586
2385,3,2,82778.2375272501,0,0,591
2386,3,2,82778.24752715617,0,0,596
2387,3,2,82778.25752706226,0,0,600
2388,3,2,82778.26752696834,0,0,603
2389,3,2,82778.27752687443,1,0,605
2390,3,2,82778.2875267805,0,0,609
2391,3,2,82778.2975266866,0,0,613
2392,3,2,82778.30752659267,0,0,616
2393,3,2,82778.31752649875,0,0,621
2394,3,2,82778.32752640484,0,0,625
2395,3,2,82778.33752631092,0,0,631
2396,3,2,82778.34752621701,0,0,636
2397,3,2,82778.35752612309,0,0,643
2398,3,2,82778.36752602916,0,0,649
2399,3,2,82778.37752593526,0,0,657
2400,3,2,82778.38752584133,0,0,664
2401,3,2,82778.39752574742,0,0,671
2402,3,2,82778.4075256535,0,0,678
2403,3,2,82778.41752555958,0,0,685
2404,3,2,82778.42752546567,0,0,691
2405,3,2,82778.43752537174,0,0,698
2406,3,2,82778.44752527784,0,0,705
2407,3,2,82778.45752518391,0,0,711
2408,3,2,82778.46752509,0,0,717
2409,3,2,82778.47752499608,0,0,721
2410,3,2,82778.48752490216,0,0,725
2411,3,2,82778.49752480825,0,0,728
2412,3,2,82778.50752471432,0,0,730
2413,3,2,82778.51752462042,0,0,732
2414,3,2,82778.5275245265,0,0,732
2415,3,2,82778.53752443257,0,0,732
2416,3,2,82778.54752433866,0,0,731
2417,3,2,82778.55752424474,0,0,729
2418,3,2,82778.56752415083,0,0,727
2419,3,2,82778.5775240569,0,0,724
2420,3,2,82778.587523963,0,0,721
2421,3,2,82778.59752386907,0,0,718
2422,3,2,82778.60752377515,0,0,714
2423,3,2,82778.61752368124,0,0,710
2424,3,2,82778.62752358732,0,0,704
2425,3,2,82778.63752349341,0,0,698
2426,3,2,82778.64752339949,0,0,693
2427,3,2,82778.65752330556,0,0,688
2428,3,2,82778.66752321165,0,0,683
2429,3,2,82778.67752311773,0,0,678
2430,3,2,82778.68752302382,0,0,674
2431,3,2,82778.6975229299,0,0,669
2432,3,2,82778.70752283598,0,0,664
2433,3,2,82778.71752274207,0,0,661
2434,3,2,82778.72752264814,0,0,657
2435,3,2,82778.73752255423,0,0,653
2436,3,2,82778.74752246031,0,0,650
2437,3,2,82778.7575223664,0,0,648
2438,3,2,82778.76752227248,0,0,646
2439,3,2,82778.77752217856,0,0,645
2440,3,2,82778.78752208465,0,0,643
2441,3,2,82778.79752199072,0,0,641
2442,3,2,82778.80752189682,0,0,638
2443,3,2,82778.81752180289,0,0,636
2444,3,2,82778.82752170897,0,0,632
2445,3,2,82778.83752161506,0,0,630
2446,3,2,82778.84752152114,0,0,627
2447,3,2,82778.85752142723,0,0,623
2448,3,2,82778.8675213333,0,0,620
2449,3,2,82778.87752123938,0,0,615
2450,3,2,82778.88752114547,0,0,610
2451,3,2,82778.89752105155,0,0,604
2452,3,2,82778.90752095764,0,0,599
2453,3,2,82778.91752086372,0,0,593
2454,3,2,82778.92752076981,0,0,589
2455,3,2,82778.93752067589,0,0,583
2456,3,2,82778.94752058196,0,0,578
2457,3,2,82778.95752048805,0,0,573
2458,3,2,82778.96752039413,0,0,567
2459,3,2,82778.97752030022,0,0,560
2460,3,2,82778.9875202063,0,0,553
2461,3,2,82778.99752011237,0,0,547
2462,3,2,82779.00752001847,0,0,541
2463,3,2,82779.01751992454,0,0,534
2464,3,2,82779.02751983063,0,0,528
2465,3,2,82779.03751973671,0,0,524
2466,3,2,82779.04751964279,0,0,519
2467,3,2,82779.05751954888,0,0,515
2468,3,2,82779.06751945495,0,0,512
2469,3,2,82779.07751936105,0,0,507
2470,3,2,82779.08751926712,0,0,502
2471,3,2,82779.09751917321,0,0,497
2472,3,2,82779.10751907929,0,0,492
2473,3,2,82779.11751898537,0,0,487
2474,3,2,82779.12751889146,0,0,483
2475,3,2,82779.13751879754,0,0,479
2476,3,2,82779.14751870363,0,0,475
2477,3,2,82779.1575186097,0,0,472
2478,3,2,82779.16751851578,0,0,470
2479,3,2,82779.17751842187,0,0,468
2480,3,2,82779.18751832795,0,0,466
2481,3,2,82779.19751823404,0,0,464
2482,3,2,82779.20751814012,0,0,462
2483,3,2,82779.2175180462,0,0,460
2484,3,2,82779.22751795228,0,0,458
2485,3,2,82779.23751785836,0,0,457
2486,3,2,82779.24751776445,0,0,455
2487,3,2,82779.25751767053,0,0,455
2488,3,2,82779.26751757662,0,0,455
2489,3,2,82779.2775174827,0,0,455
2490,3,2,82779.28751738877,0,0,455
2491,3,2,82779.29751729486,0,0,455
2492,3,2,82779.30751720094,0,0,455
2493,3,2,82779.31751710703,0,0,454
2494,3,2,82779.32751701311,0,0,452
2495,3,2,82779.33751691919,0,0,449
2496,3,2,82779.34751682528,0,0,446
2497,3,2,82779.35751673135,0,0,444
2498,3,2,82779.36751663745,0,0,442
2499,3,2,82779.37751654352,0,0,440
2500,3,2,82779.38751644961,0,0,440
2501,3,2,82779.39751635569,0,0,440
2502,3,2,82779.40751626177,0,0,441
2503,3,2,82779.41751616786,0,0,442
2504,3,2,82779.42751607393,0,0,443
2505,3,2,82779.43751598003,0,0,444
2506,3,2,82779.4475158861,0,0,445
2507,3,2,82779.45751579218,0,0,446
2508,3,2,82779.46751569827,0,0,447
2509,3,2,82779.47751560435,0,0,448
2510,3,2,82779.48751551044,0,0,449
2511,3,2,82779.49751541651,0,0,450
2512,3,2,82779.50751532259,0,0,451
2513,3,2,82779.51751522868,0,0,452
2514,3,2,82779.52751513476,0,0,452
2515,3,2,82779.53751504085,0,0,452
2516,3,2,82779.54751494693,0,0,452
2517,3,2,82779.55751485302,0,0,451
2518,3,2,82779.5675147591,0,0,448
2519,3,2,82779.57751466517,0,0,447
2520,3,2,82779.58751457126,0,0,445
2521,3,2,82779.59751447734,0,0,443
2522,3,2,82779.60751438343,0,0,441
2523,3,2,82779.61751428951,0,0,439
2524,3,2,82779.62751419558,0,0,437
2525,3,2,82779.63751410168,0,0,435
2526,3,2,82779.64751400775,0,0,432
2527,3,2,82779.65751391384,0,0,430
2528,3,2,82779.66751381992,0,0,427
2529,3,2,82779.677513726,0,0,423
2530,3,2,82779.68751363209,0,0,419
2531,3,2,82779.69751353817,0,0,416
2532,3,2,82779.70751344426,0,0,411
2533,3,2,82779.71751335033,0,0,407
2534,3,2,82779.72751325642,0,0,402
2535,3,2,82779.7375131625,0,0,398
2536,3,2,82779.74751306858,0,0,393
2537,3,2,82779.75751297467,0,0,389
2538,3,2,82779.76751288075,0,0,385
2539,3,2,82779.77751278684,0,0,381
2540,3,2,82779.78751269291,0,0,377
2541,3,2,82779.79751259899,0,0,373
2542,3,2,82779.80751250508,0,0,370
2543,3,2,82779.81751241116,0,0,367
2544,3,2,82779.82751231725,0,0,365
2545,3,2,82779.83751222333,0,0,363
2546,3,2,82779.84751212942,0,0,363
2547,3,2,82779.8575120355,0,0,364
2548,3,2,82779.86751194157,0,0,365
2549,3,2,82779.87751184766,0,0,369
2550,3,2,82779.88751175374,0,0,372
2551,3,2,82779.89751165983,0,0,377
2552,3,2,82779.9075115659,0,0,381
2553,3,2,82779.91751147198,0,0,387
2554,3,2,82779.92751137807,0,0,395
2555,3,2,82779.93751128415,0,0,404
2556,3,2,82779.94751119024,0,0,413
2557,3,2,82779.95751109632,0,0,422
2558,3,2,82779.9675110024,0,0,431
2559,3,2,82779.97751090849,0,0,441
2560,3,2,82779.98751081456,0,0,454
2561,3,2,82779.99751072066,0,0,465
2562,3,2,82780.00751062673,0,0,478
2563,3,2,82780.01751053282,0,0,491
2564,3,2,82780.0275104389,0,0,504
2565,3,2,82780.03751034498,0,0,517
2566,3,2,82780.04751025107,0,0,531
2567,3,2,82780.05751015714,0,0,544
2568,3,2,82780.06751006324,0,0,556
2569,3,2,82780.07750996931,0,0,567
2570,3,2,82780.08750987539,0,0,578
2571,3,2,82780.09750978148,0,0,589
2572,3,2,82780.10750968756,0,0,600
2573,3,2,82780.11750959365,0,0,611
2574,3,2,82780.12750949973,0,0,621
2575,3,2,82780.1375094058,0,0,631
2576,3,2,82780.1475093119,0,0,641
2577,3,2,82780.15750921797,0,0,650
2578,3,2,82780.16750912406,0,0,660
2579,3,2,82780.17750903014,0,0,670
2580,3,2,82780.18750893623,0,0,678
2581,3,2,82780.1975088423,0,0,688
2582,3,2,82780.20750874838,0,0,696
2583,3,2,82780.21750865447,0,0,703
2584,3,2,82780.22750856055,0,0,710
2585,3,2,82780.23750846664,0,0,716
2586,3,2,82780.24750837272,0,0,723
2587,3,2,82780.2575082788,0,0,731
2588,3,2,82780.26750818489,0,0,738
2589,3,2,82780.27750809096,0,0,746
2590,3,2,82780.28750799705,0,0,753
2591,3,2,82780.29750790313,0,0,760
2592,3,2,82780.30750780921,0,0,768
2593,3,2,82780.3175077153,0,0,773
2594,3,2,82780.32750762138,0,0,779
2595,3,2,82780.33750752747,0,0,783
2596,3,2,82780.34750743354,0,0,787
2597,3,2,82780.35750733964,0,0,790
2598,3,2,82780.36750724571,0,0,793
2599,3,2,82780.37750715179,0,0,796
2600,3,2,82780.38750705788,0,0,799
2601,3,2,82780.39750696396,0,0,801
2602,3,2,82780.40750687005,0,0,803
2603,3,2,82780.41750677612,0,0,805
2604,3,2,82780.4275066822,0,0,807
2605,3,2,82780.43750658829,0,0,808
2606,3,2,82780.44750649437,0,0,810
2607,3,2,82780.45750640046,0,0,812
2608,3,2,82780.46750630654,0,0,813
2609,3,2,82780.47750621261,0,0,814
2610,3,2,82780.4875061187,0,0,816
2611,3,2,82780.49750602478,0,0,816
2612,3,2,82780.50750593087,0,0,817
2613,3,2,82780.51750583695,0,0,816
2614,3,2,82780.52750574304,0,0,815
2615,3,2,82780.53750564912,0,0,814
2616,3,2,82780.5475055552,0,0,811
2617,3,2,82780.55750546129,0,0,809
2618,3,2,82780.56750536736,0,0,806
2619,3,2,82780.57750527345,0,0,804
2620,3,2,82780.58750517953,0,0,801
2621,3,2,82780.5975050856,0,0,799
2622,3,2,82780.6075049917,0,0,796
2623,3,2,82780.61750489777,0,0,792
2624,3,2,82780.62750480387,0,0,789
2625,3,2,82780.63750470994,0,0,785
2626,3,2,82780.64750461603,0,0,782
2627,3,2,82780.65750452211,0,0,778
2628,3,2,82780.66750442819,0,0,775
2629,3,2,82780.67750433428,0,0,773
2630,3,2,82780.68750424036,0,0,770
2631,3,2,82780.69750414645,0,0,768
2632,3,2,82780.70750405252,0,0,764
2633,3,2,82780.7175039586,0,0,761
2634,3,2,82780.72750386469,0,0,757
2635,3,2,82780.73750377077,0,0,753
2636,3,2,82780.74750367686,0,0,748
2637,3,2,82780.75750358294,0,0,744
2638,3,2,82780.76750348901,0,0,739
2639,3,2,82780.7775033951,0,0,734
2640,3,2,82780.78750330118,0,0,729
2641,3,2,82780.79750320727,0,0,724
2642,3,2,82780.80750311335,0,0,719
2643,3,2,82780.81750301944,0,0,716
2644,3,2,82780.82750292552,0,0,712
2645,3,2,82780.8375028316,0,0,709
2646,3,2,82780.84750273768,0,0,707
2647,3,2,82780.85750264376,0,0,706
2648,3,2,82780.86750254985,0,0,705
2649,3,2,82780.87750245593,0,0,704
2650,3,2,82780.887502362,0,0,702
2651,3,2,82780.8975022681,0,0,700
2652,3,2,82780.90750217417,0,0,699
2653,3,2,82780.91750208026,0,0,698
2654,3,2,82780.92750198634,0,0,699
2655,3,2,82780.93750189242,0,0,699
2656,3,2,82780.94750179851,0,0,698
2657,3,2,82780.95750170459,0,0,697
2658,3,2,82780.96750161068,0,0,695
2659,3,2,82780.97750151675,0,0,694
2660,3,2,82780.98750142285,0,0,693
2661,3,2,82780.99750132892,0,0,692
2662,3,2,82781.007501235,0,0,691
2663,3,2,82781.01750114109,0,0,690
2664,3,2,82781.02750104717,0,0,689
2665,3,2,82781.03750095326,0,0,688
2666,3,2,82781.04750085933,0,0,687
2667,3,2,82781.05750076541,0,0,685
2668,3,2,82781.0675006715,0,0,683
2669,3,2,82781.07750057758,0,0,682
2670,3,2,82781.08750048367,0,0,680
2671,3,2,82781.09750038975,0,0,679
2672,3,2,82781.10750029582,0,0,678
2673,3,2,82781.11750020192,0,0,677
2674,3,2,82781.12750010799,0,0,676
2675,3,2,82781.13750001408,0,0,675
2676,3,2,82781.14749992016,0,0,675
2677,3,2,82781.15749982625,0,0,675
2678,3,2,82781.16749973233,0,0,675
2679,3,2,82781.1774996384,0,0,675
2680,3,2,82781.1874995445,0,0,677
2681,3,2,82781.19749945057,0,0,678
2682,3,2,82781.20749935666,0,0,678
2683,3,2,82781.21749926274,0,0,679
2684,3,2,82781.22749916882,0,0,679
2685,3,2,82781.23749907491,0,0,681
2686,3,2,82781.24749898099,0,0,684
2687,3,2,82781.25749888708,0,0,688
2688,3,2,82781.26749879315,0,0,691
2689,3,2,82781.27749869924,0,0,696
2690,3,2,82781.28749860532,0,0,700
2691,3,2,82781.2974985114,0,0,702
2692,3,2,82781.30749841749,0,0,705
2693,3,2,82781.31749832357,0,0,708
2694,3,2,82781.32749822966,0,0,710
2695,3,2,82781.33749813573,0,0,713
2696,3,2,82781.34749804181,0,0,716
2697,3,2,82781.3574979479,0,0,718
2698,3,2,82781.36749785398,0,0,722
2699,3,2,82781.37749776007,0,0,724
2700,3,2,82781.38749766615,0,0,727
2701,3,2,82781.39749757222,0,0,729
2702,3,2,82781.40749747831,0,0,730
2703,3,2,82781.41749738439,0,0,730
2704,3,2,82781.42749729048,0,0,730
2705,3,2,82781.43749719656,0,0,729
2706,3,2,82781.44749710265,0,0,728
2707,3,2,82781.45749700873,0,0,726
2708,3,2,82781.4674969148,0,0,724
2709,3,2,82781.4774968209,0,0,721
2710,3,2,82781.48749672697,0,0,719
2711,3,2,82781.49749663306,0,0,716
2712,3,2,82781.50749653914,0,0,713
2713,3,2,82781.51749644522,0,0,710
2714,3,2,82781.52749635131,0,0,707
2715,3,2,82781.53749625738,0,0,704
2716,3,2,82781.54749616348,0,0,702
2717,3,2,82781.55749606955,0,0,700
2718,3,2,82781.56749597563,0,0,697
2719,3,2,82781.57749588172,0,0,694
2720,3,2,82781.5874957878,0,0,692
2721,3,2,82781.59749569389,0,0,689
2722,3,2,82781.60749559996,0,0,687
2723,3,2,82781.61749550606,0,0,685
2724,3,2,82781.62749541213,0,0,683
2725,3,2,82781.63749531821,0,0,681
2726,3,2,82781.6474952243,0,0,678
2727,3,2,82781.65749513038,0,0,676
2728,3,2,82781.66749503647,0,0,673
2729,3,2,82781.67749494255,0,0,670
2730,3,2,82781.68749484862,0,0,668
2731,3,2,82781.69749475471,0,0,664
2732,3,2,82781.70749466079,0,0,660
2733,3,2,82781.71749456688,1,0,657
2734,3,2,82781.72749447296,0,0,653
2735,3,2,82781.73749437903,0,0,649
2736,3,2,82781.74749428513,0,0,646
2737,3,2,82781.7574941912,0,0,643
2738,3,2,82781.7674940973,0,0,640
2739,3,2,82781.77749400337,0,0,636
2740,3,2,82781.78749390946,0,0,633
2741,3,2,82781.79749381554,0,0,630
2742,3,2,82781.80749372162,0,0,627
2743,3,2,82781.8174936277,0,0,625
2744,3,2,82781.82749353378,0,0,624
2745,3,2,82781.83749343987,0,0,622
2746,3,2,82781.84749334595,0,0,620
2747,3,2,82781.85749325203,0,0,620
2748,3,2,82781.86749315812,0,0,618
2749,3,2,82781.8774930642,0,0,618
2750,3,2,82781.88749297029,0,0,617
2751,3,2,82781.89749287636,0,0,616
2752,3,2,82781.90749278244,0,0,616
2753,3,2,82781.91749268853,0,0,615
2754,3,2,82781.92749259461,0,0,614
2755,3,2,82781.9374925007,0,0,612
2756,3,2,82781.94749240678,0,0,611
2757,3,2,82781.95749231287,0,0,609
2758,3,2,82781.96749221894,0,0,608
2759,3,2,82781.97749212502,0,0,607
2760,3,2,82781.98749203111,0,0,605
2761,3,2,82781.99749193719,0,0,604
2762,3,2,82782.00749184328,0,0,603
2763,3,2,82782.01749174936,0,0,602
2764,3,2,82782.02749165543,0,0,601
2765,3,2,82782.03749156152,0,0,601
2766,3,2,82782.0474914676,0,0,601
2767,3,2,82782.0574913737,0,0,601
2768,3,2,82782.06749127977,0,0,603
2769,3,2,82782.07749118586,0,0,603
2770,3,2,82782.08749109194,0,0,604
2771,3,2,82782.09749099801,0,0,606
2772,3,2,82782.1074909041,0,0,607
2773,3,2,82782.11749081018,0,0,607
2774,3,2,82782.12749071627,0,0,607
2775,3,2,82782.13749062235,0,0,607
2776,3,2,82782.14749052843,0,0,607
2777,3,2,82782.15749043452,0,0,606
2778,3,2,82782.1674903406,0,0,606
2779,3,2,82782.17749024669,0,0,606
2780,3,2,82782.18749015276,0,0,604
2781,3,2,82782.19749005884,0,0,603
2782,3,2,82782.20748996493,0,0,601
2783,3,2,82782.217489871,0,0,599
2784,3,2,82782.2274897771,0,0,596
2785,3,2,82782.23748968318,0,0,592
2786,3,2,82782.24748958927,0,0,590
2787,3,2,82782.25748949534,0,0,587
2788,3,2,82782.26748940142,0,0,585
2789,3,2,82782.27748930751,0,0,584
2790,3,2,82782.28748921359,0,0,583
2791,3,2,82782.29748911968,0,0,580
2792,3,2,82782.30748902576,0,0,579
2793,3,2,82782.31748893183,0,0,577
2794,3,2,82782.32748883792,0,0,575
2795,3,2,82782.337488744,0,0,574
2796,3,2,82782.34748865009,0,0,572
2797,3,2,82782.35748855617,0,0,571
2798,3,2,82782.36748846225,0,0,571
2799,3,2,82782.37748836834,0,0,569
2800,3,2,82782.38748827441,0,0,569
2801,3,2,82782.3974881805,0,0,567
2802,3,2,82782.40748808658,0,0,566
2803,3,2,82782.41748799267,0,0,564
2804,3,2,82782.42748789875,0,0,563
2805,3,2,82782.43748780483,0,0,563
2806,3,2,82782.44748771092,0,0,562
2807,3,2,82782.457487617,0,0,562
2808,3,2,82782.46748752308,0,0,560
2809,3,2,82782.47748742916,0,0,560
2810,3,2,82782.48748733524,0,0,559
2811,3,2,82782.49748724133,0,0,558
2812,3,2,82782.5074871474,0,0,556
2813,3,2,82782.5174870535,0,0,555
2814,3,2,82782.52748695957,0,0,553
2815,3,2,82782.53748686565,0,0,552
2816,3,2,82782.54748677174,0,0,551
2817,3,2,82782.55748667782,0,0,551
2818,3,2,82782.56748658391,0,0,550
2819,3,2,82782.57748648999,0,0,549
2820,3,2,82782.58748639608,0,0,548
2821,3,2,82782.59748630215,0,0,548
2822,3,2,82782.60748620823,0,0,547
2823,3,2,82782.61748611432,0,0,547
2824,3,2,82782.6274860204,0,0,546
2825,3,2,82782.63748592649,0,0,545
2826,3,2,82782.64748583257,0,0,544
2827,3,2,82782.65748573864,0,0,544
2828,3,2,82782.66748564474,0,0,544
2829,3,2,82782.67748555081,0,0,544
2830,3,2,82782.6874854569,0,0,543
2831,3,2,82782.69748536298,0,0,543
2832,3,2,82782.70748526907,0,0,543
2833,3,2,82782.71748517515,0,0,543
2834,3,2,82782.72748508122,0,0,543
2835,3,2,82782.73748498732,0,0,543
2836,3,2,82782.74748489339,0,0,543
2837,3,2,82782.75748479948,0,0,543
2838,3,2,82782.76748470556,0,0,543
2839,3,2,82782.77748461164,0,0,543
2840,3,2,82782.78748451773,0,0,544
2841,3,2,82782.7974844238,0,0,544
2842,3,2,82782.8074843299,0,0,544
2843,3,2,82782.81748423597,0,0,544
2844,3,2,82782.82748414205,0,0,544
2845,3,2,82782.83748404814,0,0,544
2846,3,2,82782.84748395422,0,0,543
2847,3,2,82782.85748386031,0,0,542
2848,3,2,82782.86748376639,0,0,542
2849,3,2,82782.87748367248,0,0,541
2850,3,2,82782.88748357855,0,0,540
2851,3,2,82782.89748348463,0,0,541
2852,3,2,82782.90748339072,0,0,541
2853,3,2,82782.9174832968,0,0,541
2854,3,2,82782.92748320289,0,0,541
2855,3,2,82782.93748310897,0,0,540
2856,3,2,82782.94748301504,0,0,540
2857,3,2,82782.95748292113,0,0,540
2858,3,2,82782.96748282721,0,0,539
2859,3,2,82782.9774827333,0,0,537
2860,3,2,82782.98748263938,0,0,537
2861,3,2,82782.99748254546,0,0,536
2862,3,2,82783.00748245155,0,0,535
2863,3,2,82783.01748235762,0,0,534
2864,3,2,82783.02748226371,0,0,532
2865,3,2,82783.03748216979,0,0,531
2866,3,2,82783.04748207588,0,0,528
2867,3,2,82783.05748198196,0,0,525
2868,3,2,82783.06748188804,0,0,522
2869,3,2,82783.07748179413,0,0,519
2870,3,2,82783.0874817002,0,0,516
2871,3,2,82783.0974816063,0,0,513
2872,3,2,82783.10748151237,0,0,511
2873,3,2,82783.11748141845,0,0,509
2874,3,2,82783.12748132454,0,0,506
2875,3,2,82783.13748123062,0,0,504
2876,3,2,82783.14748113671,0,0,502
2877,3,2,82783.15748104278,0,0,500
2878,3,2,82783.16748094886,0,0,498
2879,3,2,82783.17748085495,0,0,497
2880,3,2,82783.18748076103,0,0,496
2881,3,2,82783.19748066712,0,0,494
2882,3,2,82783.2074805732,0,0,491
2883,3,2,82783.21748047929,0,0,488
2884,3,2,82783.22748038537,0,0,484
2885,3,2,82783.23748029144,0,0,481
2886,3,2,82783.24748019753,0,0,477
2887,3,2,82783.25748010361,0,0,472
2888,3,2,82783.2674800097,0,0,466
2889,3,2,82783.27747991578,0,0,461
2890,3,2,82783.28747982185,0,0,456
2891,3,2,82783.29747972795,0,0,451
2892,3,2,82783.30747963402,0,0,445
2893,3,2,82783.31747954011,0,0,439
2894,3,2,82783.32747944619,0,0,434
2895,3,2,82783.33747935228,0,0,428
2896,3,2,82783.34747925836,0,0,424
2897,3,2,82783.35747916444,0,0,420
2898,3,2,82783.36747907053,0,0,418
2899,3,2,82783.3774789766,0,0,416
2900,3,2,82783.3874788827,0,0,415
2901,3,2,82783.39747878877,0,0,415
2902,3,2,82783.40747869485,0,0,415
2903,3,2,82783.41747860094,0,0,415
2904,3,2,82783.42747850702,0,0,416
2905,3,2,82783.4374784131,0,0,417
2906,3,2,82783.44747831918,0,0,418
2907,3,2,82783.45747822526,0,0,419
2908,3,2,82783.46747813135,0,0,419
2909,3,2,82783.47747803743,0,0,420
2910,3,2,82783.48747794352,0,0,420
2911,3,2,82783.4974778496,0,0,420
2912,3,2,82783.50747775569,0,0,420
2913,3,2,82783.51747766176,0,0,420
2914,3,2,82783.52747756784,0,0,420
2915,3,2,82783.53747747393,0,0,419
2916,3,2,82783.54747738001,0,0,417
2917,3,2,82783.5574772861,0,0,415
2918,3,2,82783.56747719218,0,0,410
2919,3,2,82783.57747709825,0,0,404
2920,3,2,82783.58747700434,0,0,397
2921,3,2,82783.59747691042,0,0,388
2922,3,2,82783.60747681651,0,0,377
2923,3,2,82783.61747672259,0,0,367
2924,3,2,82783.62747662867,0,0,353
2925,3,2,82783.63747653476,0,0,339
2926,3,2,82783.64747644083,0,0,324
2927,3,2,82783.65747634693,0,0,310
2928,3,2,82783.667476253,0,0,295
2929,3,2,82783.6774761591,0,0,280
2930,3,2,82783.68747606517,0,0,265
2931,3,2,82783.69747597125,0,0,249
2932,3,2,82783.70747587734,0,0,235
2933,3,2,82783.71747578341,0,0,221
2934,3,2,82783.7274756895,0,0,209
2935,3,2,82783.73747559558,0,0,196
2936,3,2,82783.74747550166,0,0,186
2937,3,2,82783.75747540775,0,0,178
2938,3,2,82783.76747531383,0,0,171
2939,3,2,82783.77747521992,0,0,164
2940,3,2,82783.787475126,0,0,160
2941,3,2,82783.79747503207,0,0,158
2942,3,2,82783.80747493816,0,0,156
2943,3,2,82783.81747484424,0,0,154
2944,3,2,82783.82747475033,0,0,152
2945,3,2,82783.83747465641,0,0,149
2946,3,2,82783.8474745625,0,0,147
2947,3,2,82783.85747446858,0,0,145
2948,3,2,82783.86747437465,0,0,142
2949,3,2,82783.87747428074,0,0,140
2950,3,2,82783.88747418682,0,0,139
2951,3,2,82783.89747409291,0,0,137
2952,3,2,82783.90747399899,0,0,136
2953,3,2,82783.91747390506,0,0,134
2954,3,2,82783.92747381116,0,0,133
2955,3,2,82783.93747371723,0,0,130
2956,3,2,82783.94747362332,0,0,128
2957,3,2,82783.9574735294,0,0,127
2958,3,2,82783.96747343548,0,0,127
2959,3,2,82783.97747334157,0,0,128
2960,3,2,82783.98747324765,0,0,129
2961,3,2,82783.99747315374,0,0,132
2962,3,2,82784.00747305981,0,0,134
2963,3,2,82784.0174729659,0,0,137
2964,3,2,82784.02747287198,0,0,139
2965,3,2,82784.03747277806,0,0,141
2966,3,2,82784.04747268415,0,0,143
2967,3,2,82784.05747259023,0,0,144
2968,3,2,82784.06747249632,0,0,145
2969,3,2,82784.0774724024,0,0,147
2970,3,2,82784.08747230847,0,0,149
2971,3,2,82784.09747221456,0,0,152
2972,3,2,82784.10747212064,0,0,154
2973,3,2,82784.11747202673,0,0,157
2974,3,2,82784.1274719328,0,0,159
2975,3,2,82784.1374718389,0,0,163
2976,3,2,82784.14747174497,0,0,165
2977,3,2,82784.15747165105,0,0,168
2978,3,2,82784.16747155714,0,0,170
2979,3,2,82784.17747146322,0,0,173
2980,3,2,82784.18747136931,0,0,175
2981,3,2,82784.19747127539,0,0,179
2982,3,2,82784.20747118146,0,0,183
2983,3,2,82784.21747108756,0,0,188
2984,3,2,82784.22747099363,0,0,194
2985,3,2,82784.23747089972,0,0,200
2986,3,2,82784.2474708058,0,0,207
2987,3,2,82784.25747071188,0,0,214
2988,3,2,82784.26747061797,0,0,221
2989,3,2,82784.27747052404,0,0,228
2990,3,2,82784.28747043014,0,0,235
2991,3,2,82784.29747033621,0,0,240
2992,3,2,82784.3074702423,0,0,247
2993,3,2,82784.31747014838,0,0,252
2994,3,2,82784.32747005446,0,0,257
2995,3,2,82784.33746996055,0,0,262
2996,3,2,82784.34746986663,0,0,267
2997,3,2,82784.35746977272,0,0,271
2998,3,2,82784.3674696788,0,0,275
2999,3,2,82784.37746958487,0,0,280
3000,3,2,82784.38746949096,0,0,283
3001,3,2,82784.39746939704,0,0,285
3002,3,2,82784.40746930313,0,0,287
3003,3,2,82784.4174692092,0,0,289
3004,3,2,82784.42746911528,0,0,291
3005,3,2,82784.43746902137,0,0,293
3006,3,2,82784.44746892745,0,0,294
3007,3,2,82784.45746883354,0,0,296
3008,3,2,82784.46746873962,0,0,297
3009,3,2,82784.47746864571,0,0,299
3010,3,2,82784.48746855179,0,0,301
3011,3,2,82784.49746845786,0,0,305
3012,3,2,82784.50746836395,0,0,309
3013,3,2,82784.51746827003,0,0,313
3014,3,2,82784.52746817612,0,0,317
3015,3,2,82784.5374680822,0,0,320
3016,3,2,82784.54746798828,0,0,324
3017,3,2,82784.55746789437,0,0,326
3018,3,2,82784.56746780044,0,0,327
3019,3,2,82784.57746770653,0,0,328
3020,3,2,82784.58746761261,0,0,328
3021,3,2,82784.59746751869,0,0,328
3022,3,2,82784.60746742478,0,0,327
3023,3,2,82784.61746733086,0,0,326
3024,3,2,82784.62746723695,0,0,324
3025,3,2,82784.63746714302,0,0,322
3026,3,2,82784.64746704912,0,0,319
3027,3,2,82784.65746695519,0,0,317
3028,3,2,82784.66746686127,0,0,315
3029,3,2,82784.67746676736,0,0,312
3030,3,2,82784.68746667344,0,0,310
3031,3,2,82784.69746657953,0,0,308
3032,3,2,82784.7074664856,0,0,307
3033,3,2,82784.71746639168,0,0,307
3034,3,2,82784.72746629777,0,0,307
3035,3,2,82784.73746620385,0,0,307
3036,3,2,82784.74746610994,0,0,308
3037,3,2,82784.75746601602,0,0,309
3038,3,2,82784.76746592211,0,0,309
3039,3,2,82784.77746582819,0,0,309
3040,3,2,82784.78746573426,0,0,307
3041,3,2,82784.79746564035,0,0,306
3042,3,2,82784.80746554643,0,0,305
3043,3,2,82784.81746545252,0,0,304
3044,3,2,82784.8274653586,0,0,304
3045,3,2,82784.83746526467,0,0,305
3046,3,2,82784.84746517077,0,0,307
3047,3,2,82784.85746507684,0,0,309
3048,3,2,82784.86746498293,0,0,311
3049,3,2,82784.87746488901,0,0,314
3050,3,2,82784.88746479509,0,0,317
3051,3,2,82784.89746470118,0,0,319
3052,3,2,82784.90746460725,0,0,321
3053,3,2,82784.91746451335,0,0,324
3054,3,2,82784.92746441942,0,0,328
3055,3,2,82784.93746432551,0,0,332
3056,3,2,82784.94746423159,0,0,336
3057,3,2,82784.95746413767,0,0,342
3058,3,2,82784.96746404376,0,0,347
3059,3,2,82784.97746394984,0,0,352
3060,3,2,82784.98746385593,0,0,358
3061,3,2,82784.997463762,0,0,363
3062,3,2,82785.00746366808,0,0,367
3063,3,2,82785.01746357417,0,0,373
3064,3,2,82785.02746348025,0,0,378
3065,3,2,82785.03746338634,0,0,381
3066,3,2,82785.04746329242,0,0,386
3067,3,2,82785.0574631985,0,0,390
3068,3,2,82785.06746310458,0,0,394
3069,3,2,82785.07746301066,1,0,398
3070,3,2,82785.08746291675,0,0,401
3071,3,2,82785.09746282283,0,0,404
3072,3,2,82785.10746272892,0,0,407
3073,3,2,82785.117462635,0,0,408
3074,3,2,82785.12746254107,0,0,411
3075,3,2,82785.13746244716,0,0,413
3076,3,2,82785.14746235324,0,0,415
3077,3,2,82785.15746225933,0,0,418
3078,3,2,82785.16746216541,0,0,422
3079,3,2,82785.17746207149,0,0,426
3080,3,2,82785.18746197758,0,0,430
3081,3,2,82785.19746188365,0,0,434
3082,3,2,82785.20746178975,0,0,438
3083,3,2,82785.21746169582,0,0,440
3084,3,2,82785.2274616019,0,0,444
3085,3,2,82785.23746150799,0,0,446
3086,3,2,82785.24746141407,0,0,449
3087,3,2,82785.25746132016,0,0,451
3088,3,2,82785.26746122623,0,0,452
3089,3,2,82785.27746113233,0,0,454
3090,3,2,82785.2874610384,0,0,455
3091,3,2,82785.29746094448,0,0,457
3092,3,2,82785.30746085057,0,0,460
3093,3,2,82785.31746075665,0,0,464
3094,3,2,82785.32746066274,0,0,468
3095,3,2,82785.33746056882,0,0,475
3096,3,2,82785.34746047489,0,0,483
3097,3,2,82785.35746038098,0,0,491
3098,3,2,82785.36746028706,0,0,501
3099,3,2,82785.37746019315,0,0,512
3100,3,2,82785.38746009923,0,0,523
3101,3,2,82785.3974600053,0,0,533
3102,3,2,82785.4074599114,0,0,542
3103,3,2,82785.41745981747,0,0,550
3104,3,2,82785.42745972356,0,0,557
3105,3,2,82785.43745962964,0,0,564
3106,3,2,82785.44745953573,0,0,571
3107,3,2,82785.45745944181,0,0,577
3108,3,2,82785.46745934788,0,0,584
3109,3,2,82785.47745925398,0,0,589
3110,3,2,82785.48745916005,0,0,595
3111,3,2,82785.49745906614,0,0,600
3112,3,2,82785.50745897222,1,0,604
3113,3,2,82785.5174588783,0,0,610
3114,3,2,82785.52745878439,0,0,614
3115,3,2,82785.53745869047,0,0,616
3116,3,2,82785.54745859656,0,0,620
3117,3,2,82785.55745850263,0,0,623
3118,3,2,82785.56745840872,0,0,626
3119,3,2,82785.5774583148,0,0,628
3120,3,2,82785.58745822088,0,0,632
3121,3,2,82785.59745812697,0,0,635
3122,3,2,82785.60745803305,0,0,638
3123,3,2,82785.61745793914,0,0,641
3124,3,2,82785.62745784521,0,0,644
3125,3,2,82785.63745775129,0,0,646
3126,3,2,82785.64745765738,0,0,647
3127,3,2,82785.65745756346,0,0,647
3128,3,2,82785.66745746955,0,0,643
3129,3,2,82785.67745737563,0,0,638
3130,3,2,82785.6874572817,0,0,631
3131,3,2,82785.6974571878,0,0,624
3132,3,2,82785.70745709387,0,0,615
3133,3,2,82785.71745699996,0,0,604
3134,3,2,82785.72745690604,0,0,592
3135,3,2,82785.73745681213,0,0,580
3136,3,2,82785.7474567182,0,0,570
3137,3,2,82785.75745662428,0,0,560
3138,3,2,82785.76745653038,0,0,551
3139,3,2,82785.77745643645,0,0,544
3140,3,2,82785.78745634254,0,0,538
3141,3,2,82785.79745624862,0,0,533
3142,3,2,82785.8074561547,0,0,529
3143,3,2,82785.81745606079,0,0,526
3144,3,2,82785.82745596686,0,0,523
3145,3,2,82785.83745587296,0,0,519
3146,3,2,82785.84745577903,0,0,515
3147,3,2,82785.85745568511,1,0,510
3148,3,2,82785.8674555912,0,0,507
3149,3,2,82785.87745549728,0,0,505
3150,3,2,82785.88745540337,0,0,503
3151,3,2,82785.89745530944,0,0,502
3152,3,2,82785.90745521554,0,0,501
3153,3,2,82785.91745512161,0,0,501
3154,3,2,82785.92745502769,0,0,500
3155,3,2,82785.93745493378,0,0,500
3156,3,2,82785.94745483986,0,0,499
3157,3,2,82785.95745474595,0,0,498
3158,3,2,82785.96745465203,0,0,497
3159,3,2,82785.9774545581,0,0,496
3160,3,2,82785.9874544642,0,0,496
3161,3,2,82785.99745437027,0,0,495
3162,3,2,82786.00745427636,0,0,493
3163,3,2,82786.01745418244,0,0,491
3164,3,2,82786.02745408851,0,0,490
3165,3,2,82786.0374539946,0,0,487
3166,3,2,82786.04745390068,0,0,485
3167,3,2,82786.05745380677,0,0,483
3168,3,2,82786.06745371285,0,0,480
3169,3,2,82786.07745361894,0,0,478
3170,3,2,82786.08745352502,0,0,475
3171,3,2,82786.0974534311,0,0,472
3172,3,2,82786.10745333719,0,0,469
3173,3,2,82786.11745324326,0,0,465
3174,3,2,82786.12745314935,0,0,462
3175,3,2,82786.13745305543,0,0,458
3176,3,2,82786.14745296151,0,0,454
3177,3,2,82786.1574528676,0,0,451
3178,3,2,82786.16745277368,0,0,448
3179,3,2,82786.17745267977,0,0,446
3180,3,2,82786.18745258584,0,0,444
3181,3,2,82786.19745249194,0,0,441
3182,3,2,82786.20745239801,0,0,438
3183,3,2,82786.21745230409,0,0,436
3184,3,2,82786.22745221018,0,0,434
3185,3,2,82786.23745211626,0,0,432
3186,3,2,82786.24745202235,0,0,430
3187,3,2,82786.25745192842,0,0,428
3188,3,2,82786.2674518345,0,0,427
3189,3,2,82786.27745174059,0,0,425
3190,3,2,82786.28745164667,0,0,423
3191,3,2,82786.29745155276,0,0,423
3192,3,2,82786.30745145884,0,0,422
3193,3,2,82786.31745136491,0,0,419
3194,3,2,82786.327451271,0,0,416
3195,3,2,82786.33745117708,0,0,413
3196,3,2,82786.34745108317,0,0,408
3197,3,2,82786.35745098925,0,0,404
3198,3,2,82786.36745089534,0,0,400
3199,3,2,82786.37745080142,0,0,397
3200,3,2,82786.3874507075,0,0,394
3201,3,2,82786.39745061359,0,0,391
3202,3,2,82786.40745051966,0,0,387
3203,3,2,82786.41745042575,0,0,382
3204,3,2,82786.42745033183,0,0,378
3205,3,2,82786.4374502379,0,0,373
3206,3,2,82786.447450144,0,0,368
3207,3,2,82786.45745005007,0,0,364
3208,3,2,82786.46744995617,0,0,359
3209,3,2,82786.47744986224,0,0,354
3210,3,2,82786.48744976832,0,0,349
3211,3,2,82786.49744967441,0,0,344
3212,3,2,82786.50744958049,0,0,339
3213,3,2,82786.51744948658,0,0,335
3214,3,2,82786.52744939266,0,0,331
3215,3,2,82786.53744929875,0,0,328
3216,3,2,82786.54744920482,0,0,325
3217,3,2,82786.5574491109,0,0,323
3218,3,2,82786.56744901699,0,0,323
3219,3,2,82786.57744892307,0,0,323
3220,3,2,82786.58744882916,0,0,324
3221,3,2,82786.59744873524,0,0,327
3222,3,2,82786.60744864131,0,0,329
3223,3,2,82786.6174485474,0,0,333
3224,3,2,82786.62744845348,0,0,337
3225,3,2,82786.63744835957,0,0,340
3226,3,2,82786.64744826565,0,0,344
3227,3,2,82786.65744817173,0,0,347
3228,3,2,82786.66744807782,0,0,350
3229,3,2,82786.6774479839,0,0,354
3230,3,2,82786.68744788998,0,0,357
3231,3,2,82786.69744779606,0,0,361
3232,3,2,82786.70744770215,0,0,366
3233,3,2,82786.71744760823,0,0,370
3234,3,2,82786.7274475143,0,0,374
3235,3,2,82786.7374474204,0,0,377
3236,3,2,82786.74744732647,0,0,380
3237,3,2,82786.75744723257,0,0,383
3238,3,2,82786.76744713864,0,0,385
3239,3,2,82786.77744704472,0,0,386
3240,3,2,82786.78744695081,0,0,387
3241,3,2,82786.79744685689,0,0,387
3242,3,2,82786.80744676298,0,0,386
3243,3,2,82786.81744666905,0,0,385
3244,3,2,82786.82744657515,0,0,384
3245,3,2,82786.83744648122,0,0,384
3246,3,2,82786.8474463873,0,0,382
3247,3,2,82786.85744629339,0,0,382
3248,3,2,82786.86744619947,0,0,383
3249,3,2,82786.87744610556,0,0,384
3250,3,2,82786.88744601163,0,0,387
3251,3,2,82786.89744591771,0,0,391
3252,3,2,82786.9074458238,0,0,396
3253,3,2,82786.91744572988,0,0,401
3254,3,2,82786.92744563597,0,0,408
3255,3,2,82786.93744554205,0,0,415
3256,3,2,82786.94744544812,0,0,422
3257,3,2,82786.95744535422,0,0,429
3258,3,2,82786.96744526029,0,0,437
3259,3,2,82786.97744516638,0,0,444
3260,3,2,82786.98744507246,0,0,451
3261,3,2,82786.99744497855,0,0,457
3262,3,2,82787.00744488463,0,0,464
3263,3,2,82787.0174447907,0,0,470
3264,3,2,82787.0274446968,0,0,475
3265,3,2,82787.03744460287,0,0,482
3266,3,2,82787.04744450896,0,0,488
3267,3,2,82787.05744441504,0,0,495
3268,3,2,82787.06744432112,0,0,503
3269,3,2,82787.07744422721,0,0,511
3270,3,2,82787.08744413329,0,0,519
3271,3,2,82787.09744403938,0,0,527
3272,3,2,82787.10744394545,0,0,533
3273,3,2,82787.11744385153,0,0,537
3274,3,2,82787.12744375762,0,0,539
3275,3,2,82787.1374436637,0,0,539
3276,3,2,82787.14744356979,0,0,536
3277,3,2,82787.15744347587,0,0,533
3278,3,2,82787.16744338196,0,0,529
3279,3,2,82787.17744328803,0,0,523
3280,3,2,82787.18744319411,0,1,518
3281,3,2,82787.1974431002,0,0,512
3282,3,2,82787.20744300628,0,0,506
3283,3,2,82787.21744291237,0,0,501
3284,3,2,82787.22744281845,0,0,497
3285,3,2,82787.23744272452,0,0,494
3286,3,2,82787.24744263061,0,0,490
3287,3,2,82787.25744253669,0,0,486
3288,3,2,82787.26744244278,0,0,483
3289,3,2,82787.27744234886,0,0,480
3290,3,2,82787.28744225494,0,0,478
3291,3,2,82787.29744216103,0,0,476
3292,3,2,82787.3074420671,0,0,474
3293,3,2,82787.3174419732,0,0,472
3294,3,2,82787.32744187927,0,0,471
3295,3,2,82787.33744178536,0,0,469
3296,3,2,82787.34744169144,0,0,467
3297,3,2,82787.35744159752,0,0,465
3298,3,2,82787.36744150361,0,0,462
3299,3,2,82787.37744140968,0,0,460
3300,3,2,82787.38744131578,0,0,459
3301,3,2,82787.39744122185,0,0,456
3302,3,2,82787.40744112793,0,0,454
3303,3,2,82787.41744103402,0,0,452
3304,3,2,82787.4274409401,0,0,448
3305,3,2,82787.43744084619,0,0,444
3306,3,2,82787.44744075226,0,0,440
3307,3,2,82787.45744065834,0,0,436
3308,3,2,82787.46744056443,0,0,434
3309,3,2,82787.47744047051,0,0,432
3310,3,2,82787.4874403766,0,0,430
3311,3,2,82787.49744028268,0,0,429
3312,3,2,82787.50744018877,0,0,427
3313,3,2,82787.51744009485,0,0,427
3314,3,2,82787.52744000092,0,0,427
3315,3,2,82787.53743990701,0,0,428
3316,3,2,82787.54743981309,0,0,430
3317,3,2,82787.55743971918,0,0,432
3318,3,2,82787.56743962526,0,0,434
3319,3,2,82787.57743953133,0,0,438
3320,3,2,82787.58743943743,0,0,442
3321,3,2,82787.5974393435,0,0,447
3322,3,2,82787.6074392496,0,0,452
3323,3,2,82787.61743915567,0,0,459
3324,3,2,82787.62743906176,0,0,465
3325,3,2,82787.63743896784,0,0,471
3326,3,2,82787.64743887392,0,0,476
3327,3,2,82787.65743878,0,0,483
3328,3,2,82787.66743868608,0,0,487
3329,3,2,82787.67743859217,0,0,494
3330,3,2,82787.68743849825,0,0,498
3331,3,2,82787.69743840433,0,0,503
3332,3,2,82787.70743831042,0,0,508
3333,3,2,82787.7174382165,0,0,511
3334,3,2,82787.72743812259,0,0,515
3335,3,2,82787.73743802866,0,0,518
3336,3,2,82787.74743793474,0,0,520
3337,3,2,82787.75743784083,0,0,522
3338,3,2,82787.76743774691,0,0,524
3339,3,2,82787.777437653,0,0,527
3340,3,2,82787.78743755908,0,0,531
3341,3,2,82787.79743746517,0,0,536
3342,3,2,82787.80743737124,0,0,541
3343,3,2,82787.81743727732,0,0,545
3344,3,2,82787.82743718341,0,0,552
3345,3,2,82787.83743708949,0,0,560
3346,3,2,82787.84743699558,0,0,568
3347,3,2,82787.85743690166,0,0,578
3348,3,2,82787.86743680773,0,0,588
3349,3,2,82787.87743671382,0,0,599
3350,3,2,82787.8874366199,0,0,610
3351,3,2,82787.897436526,0,0,621
3352,3,2,82787.90743643207,0,0,633
3353,3,2,82787.91743633815,0,0,645
3354,3,2,82787.92743624424,0,0,656
3355,3,2,82787.93743615031,0,0,666
3356,3,2,82787.9474360564,0,0,676
3357,3,2,82787.95743596248,0,0,684
3358,3,2,82787.96743586857,0,0,690
3359,3,2,82787.97743577465,0,0,694
3360,3,2,82787.98743568073,0,0,697
3361,3,2,82787.99743558682,0,0,700
3362,3,2,82788.0074354929,0,0,700
3363,3,2,82788.01743539899,0,0,701
3364,3,2,82788.02743530506,0,0,700
3365,3,2,82788.03743521114,0,0,699
3366,3,2,82788.04743511723,0,0,697
3367,3,2,82788.05743502331,0,0,695
3368,3,2,82788.0674349294,0,0,692
3369,3,2,82788.07743483548,0,0,691
3370,3,2,82788.08743474155,0,0,693
3371,3,2,82788.09743464764,0,0,695
3372,3,2,82788.10743455372,0,0,698
3373,3,2,82788.11743445981,0,0,702
3374,3,2,82788.12743436589,0,0,707
3375,3,2,82788.13743427198,0,0,713
3376,3,2,82788.14743417806,0,0,720
3377,3,2,82788.15743408413,0,0,728
3378,3,2,82788.16743399022,0,0,736
3379,3,2,82788.1774338963,0,0,745
3380,3,2,82788.18743380239,0,0,753
3381,3,2,82788.19743370847,0,0,761
3382,3,2,82788.20743361455,0,0,770
3383,3,2,82788.21743352064,0,0,778
3384,3,2,82788.22743342671,0,0,786
3385,3,2,82788.2374333328,0,0,793
3386,3,2,82788.24743323888,0,0,799
3387,3,2,82788.25743314497,0,0,804
3388,3,2,82788.26743305105,0,0,810
3389,3,2,82788.27743295713,0,0,814
3390,3,2,82788.28743286322,0,0,817
3391,3,2,82788.2974327693,0,0,820
3392,3,2,82788.30743267538,0,0,822
3393,3,2,82788.31743258146,0,0,824
3394,3,2,82788.32743248754,0,0,826
3395,3,2,82788.33743239363,0,0,829
3396,3,2,82788.3474322997,0,0,831
3397,3,2,82788.3574322058,0,0,834
3398,3,2,82788.36743211187,0,0,835
3399,3,2,82788.37743201795,0,0,838
3400,3,2,82788.38743192404,0,0,840
3401,3,2,82788.39743183012,0,0,843
3402,3,2,82788.40743173621,0,0,846
3403,3,2,82788.41743164229,0,0,848
3404,3,2,82788.42743154838,0,0,850
3405,3,2,82788.43743145445,0,0,852
3406,3,2,82788.44743136053,0,0,853
3407,3,2,82788.45743126662,0,0,855
3408,3,2,82788.4674311727,0,0,856
3409,3,2,82788.47743107879,0,0,856
3410,3,2,82788.48743098487,0,0,856
3411,3,2,82788.49743089094,0,0,856
3412,3,2,82788.50743079704,0,0,856
3413,3,2,82788.51743070311,0,0,855
3414,3,2,82788.5274306092,0,0,854
3415,3,2,82788.53743051528,0,0,851
3416,3,2,82788.54743042136,0,0,847
3417,3,2,82788.55743032745,0,0,845
3418,3,2,82788.56743023352,0,0,842
3419,3,2,82788.57743013962,0,0,839
3420,3,2,82788.58743004569,0,0,836
3421,3,2,82788.59742995178,0,0,833
3422,3,2,82788.60742985786,0,0,830
3423,3,2,82788.61742976394,0,0,825
3424,3,2,82788.62742967003,0,0,821
3425,3,2,82788.6374295761,0,0,816
3426,3,2,82788.6474294822,0,0,812
3427,3,2,82788.65742938827,0,0,806
3428,3,2,82788.66742929435,0,0,800
3429,3,2,82788.67742920044,0,0,796
3430,3,2,82788.68742910652,0,0,790
3431,3,2,82788.69742901261,0,0,784
3432,3,2,82788.70742891869,0,0,780
3433,3,2,82788.71742882476,0,0,775
3434,3,2,82788.72742873085,0,0,769
3435,3,2,82788.73742863693,0,0,764
3436,3,2,82788.74742854302,0,0,759
3437,3,2,82788.7574284491,0,0,754
3438,3,2,82788.76742835519,0,0,750
3439,3,2,82788.77742826127,1,0,746
3440,3,2,82788.78742816734,0,0,743
3441,3,2,82788.79742807343,0,0,740
3442,3,2,82788.80742797951,0,0,739
3443,3,2,82788.8174278856,0,0,736
3444,3,2,82788.82742779168,0,0,734
3445,3,2,82788.83742769776,0,0,732
3446,3,2,82788.84742760385,0,0,729
3447,3,2,82788.85742750992,0,0,727
3448,3,2,82788.86742741601,0,0,724
3449,3,2,82788.87742732209,0,0,721
3450,3,2,82788.88742722818,0,0,717
3451,3,2,82788.89742713426,0,0,712
3452,3,2,82788.90742704034,0,0,708
3453,3,2,82788.91742694643,0,0,704
3454,3,2,82788.9274268525,0,0,699
3455,3,2,82788.9374267586,0,0,696
3456,3,2,82788.94742666467,1,0,694
3457,3,2,82788.95742657075,0,0,692
3458,3,2,82788.96742647684,0,0,689
3459,3,2,82788.97742638292,0,0,686
3460,3,2,82788.98742628901,0,0,684
3461,3,2,82788.99742619508,0,0,681
3462,3,2,82789.00742610116,0,0,678
3463,3,2,82789.01742600725,0,0,675
3464,3,2,82789.02742591333,0,0,671
3465,3,2,82789.03742581942,0,0,667
3466,3,2,82789.0474257255,0,0,662
3467,3,2,82789.05742563159,0,0,659
3468,3,2,82789.06742553767,0,0,655
3469,3,2,82789.07742544374,0,0,651
3470,3,2,82789.08742534983,0,0,647
3471,3,2,82789.09742525591,0,0,644
3472,3,2,82789.107425162,0,0,641
3473,3,2,82789.11742506808,0,0,638
3474,3,2,82789.12742497415,0,0,635
3475,3,2,82789.13742488025,0,0,632
