,session,participant,time,ECG,EDA,Respiration
0,3,3,82757.78983989483,487,1020,491
1,3,3,82757.799839865,489,1020,492
2,3,3,82757.80983983517,489,1020,492
3,3,3,82757.81983980534,489,1020,493
4,3,3,82757.82983977551,487,1020,492
5,3,3,82757.83983974568,488,1020,492
6,3,3,82757.84983971585,484,1020,492
7,3,3,82757.85983968602,485,1020,491
8,3,3,82757.8698396562,485,1020,491
9,3,3,82757.87983962636,484,1020,489
10,3,3,82757.88983959652,488,1020,489
11,3,3,82757.8998395667,492,1020,487
12,3,3,82757.90983953686,499,1020,486
13,3,3,82757.91983950704,510,1020,483
14,3,3,82757.9298394772,519,1020,481
15,3,3,82757.93983944738,528,1020,478
16,3,3,82757.94983941755,535,1020,478
17,3,3,82757.95983938771,536,1020,477
18,3,3,82757.96983935789,540,1020,476
19,3,3,82757.97983932805,537,1020,476
20,3,3,82757.98983929823,536,1020,475
21,3,3,82757.99983926839,534,1020,476
22,3,3,82758.00983923857,530,1020,476
23,3,3,82758.01983920873,528,1020,476
24,3,3,82758.02983917891,526,1020,477
25,3,3,82758.03983914907,524,1020,478
26,3,3,82758.04983911924,522,1020,479
27,3,3,82758.05983908942,518,1020,479
28,3,3,82758.06983905958,516,1020,479
29,3,3,82758.07983902976,516,1020,480
30,3,3,82758.08983899992,514,1020,481
31,3,3,82758.0998389701,512,1020,481
32,3,3,82758.10983894026,507,1020,483
33,3,3,82758.11983891044,512,1020,483
34,3,3,82758.1298388806,511,1020,485
35,3,3,82758.13983885077,511,1020,485
36,3,3,82758.14983882094,512,1020,486
37,3,3,82758.1598387911,511,1020,487
38,3,3,82758.16983876129,511,1020,488
39,3,3,82758.17983873145,511,1020,487
40,3,3,82758.18983870163,510,1020,488
41,3,3,82758.19983867179,507,1020,488
42,3,3,82758.20983864195,505,1020,488
43,3,3,82758.21983861213,506,1020,487
44,3,3,82758.2298385823,507,1020,486
45,3,3,82758.23983855247,505,1020,485
46,3,3,82758.24983852264,503,1020,485
47,3,3,82758.25983849281,503,1020,484
48,3,3,82758.26983846298,506,1020,484
49,3,3,82758.27983843315,512,1020,484
50,3,3,82758.28983840332,516,1020,484
51,3,3,82758.29983837348,517,1020,483
52,3,3,82758.30983834366,513,1020,483
53,3,3,82758.31983831382,512,1020,484
54,3,3,82758.329838284,512,1020,483
55,3,3,82758.33983825416,512,1020,484
56,3,3,82758.34983822434,511,1020,484
57,3,3,82758.3598381945,504,1020,484
58,3,3,82758.36983816468,480,1020,483
59,3,3,82758.37983813485,496,1020,484
60,3,3,82758.38983810501,538,1020,484
61,3,3,82758.39983807519,559,1020,484
62,3,3,82758.40983804535,578,1020,485
63,3,3,82758.41983801553,564,1020,486
64,3,3,82758.42983798569,522,1020,486
65,3,3,82758.43983795587,491,1020,485
66,3,3,82758.44983792603,483,1020,485
67,3,3,82758.45983789621,482,1020,484
68,3,3,82758.46983786637,482,1020,483
69,3,3,82758.47983783654,484,1019,483
70,3,3,82758.48983780672,484,1020,482
71,3,3,82758.49983777688,490,1020,482
72,3,3,82758.50983774706,485,1020,481
73,3,3,82758.51983771722,487,1020,481
74,3,3,82758.5298376874,489,1020,481
75,3,3,82758.53983765756,485,1020,480
76,3,3,82758.54983762772,486,1019,479
77,3,3,82758.5598375979,487,1020,479
78,3,3,82758.56983756807,487,1020,479
79,3,3,82758.57983753824,483,1020,478
80,3,3,82758.5898375084,486,1020,478
81,3,3,82758.59983747858,486,1020,477
82,3,3,82758.60983744875,489,1020,476
83,3,3,82758.61983741893,493,1020,475
84,3,3,82758.62983738909,499,1020,474
85,3,3,82758.63983735925,507,1020,473
86,3,3,82758.64983732943,517,1020,471
87,3,3,82758.6598372996,527,1020,471
88,3,3,82758.66983726977,534,1020,470
89,3,3,82758.67983723994,537,1020,469
90,3,3,82758.68983721011,539,1020,469
91,3,3,82758.69983718028,537,1020,468
92,3,3,82758.70983715045,535,1020,467
93,3,3,82758.71983712062,534,1020,467
94,3,3,82758.72983709078,531,1020,468
95,3,3,82758.73983706096,529,1020,469
96,3,3,82758.74983703112,524,1020,469
97,3,3,82758.7598370013,521,1020,471
98,3,3,82758.76983697146,519,1020,470
99,3,3,82758.77983694164,519,1019,471
100,3,3,82758.7898369118,515,1020,471
101,3,3,82758.79983688197,514,1020,471
102,3,3,82758.80983685215,513,1020,472
103,3,3,82758.81983682231,513,1020,472
104,3,3,82758.82983679249,512,1020,474
105,3,3,82758.83983676265,511,1020,476
106,3,3,82758.84983673283,510,1020,477
107,3,3,82758.85983670299,510,1020,478
108,3,3,82758.86983667317,511,1020,479
109,3,3,82758.87983664333,510,1020,481
110,3,3,82758.8898366135,511,1020,482
111,3,3,82758.89983658367,510,1020,483
112,3,3,82758.90983655384,510,1020,484
113,3,3,82758.91983652402,510,1020,485
114,3,3,82758.92983649418,508,1020,486
115,3,3,82758.93983646436,506,1020,487
116,3,3,82758.94983643452,509,1020,487
117,3,3,82758.9598364047,507,1020,489
118,3,3,82758.96983637486,504,1020,490
119,3,3,82758.97983634502,504,1020,491
120,3,3,82758.9898363152,503,1020,492
121,3,3,82758.99983628537,508,1020,492
122,3,3,82759.00983625554,515,1020,494
123,3,3,82759.0198362257,515,1020,493
124,3,3,82759.02983619588,513,1020,494
125,3,3,82759.03983616605,513,1020,494
126,3,3,82759.04983613621,512,1020,494
127,3,3,82759.05983610639,513,1020,494
128,3,3,82759.06983607655,513,1020,495
129,3,3,82759.07983604673,511,1020,494
130,3,3,82759.0898360169,510,1019,495
131,3,3,82759.09983598707,488,1020,495
132,3,3,82759.10983595724,485,1020,494
133,3,3,82759.11983592741,523,1020,493
134,3,3,82759.12983589758,552,1020,494
135,3,3,82759.13983586774,572,1020,492
136,3,3,82759.14983583792,572,1020,493
137,3,3,82759.15983580808,531,1020,492
138,3,3,82759.16983577826,500,1020,491
139,3,3,82759.17983574842,486,1020,489
140,3,3,82759.1898357186,484,1020,488
141,3,3,82759.19983568876,483,1020,487
142,3,3,82759.20983565894,487,1020,486
143,3,3,82759.2198356291,487,1020,484
144,3,3,82759.22983559927,485,1020,484
145,3,3,82759.23983556945,488,1020,485
146,3,3,82759.24983553961,487,1020,484
147,3,3,82759.25983550979,486,1020,484
148,3,3,82759.26983547995,486,1020,484
149,3,3,82759.27983545013,487,1020,483
150,3,3,82759.28983542029,487,1020,481
151,3,3,82759.29983539045,485,1020,480
152,3,3,82759.30983536063,482,1020,477
153,3,3,82759.3198353308,483,1020,474
154,3,3,82759.32983530097,486,1020,471
155,3,3,82759.33983527114,487,1020,469
156,3,3,82759.34983524132,493,1020,465
157,3,3,82759.35983521148,496,1020,461
158,3,3,82759.36983518166,507,1020,459
159,3,3,82759.37983515182,518,1019,455
160,3,3,82759.38983512198,526,1020,452
161,3,3,82759.39983509216,532,1020,450
162,3,3,82759.40983506232,537,1020,448
163,3,3,82759.4198350325,538,1020,445
164,3,3,82759.42983500267,541,1020,443
165,3,3,82759.43983497284,537,1020,441
166,3,3,82759.449834943,537,1020,439
167,3,3,82759.45983491318,533,1020,439
168,3,3,82759.46983488335,531,1020,437
169,3,3,82759.47983485351,528,1020,437
170,3,3,82759.48983482369,524,1020,436
171,3,3,82759.49983479385,523,1020,435
172,3,3,82759.50983476403,518,1020,435
173,3,3,82759.5198347342,516,1020,433
174,3,3,82759.52983470437,516,1020,434
175,3,3,82759.53983467454,515,1020,434
176,3,3,82759.54983464471,512,1020,435
177,3,3,82759.55983461488,512,1020,436
178,3,3,82759.56983458504,509,1020,438
179,3,3,82759.57983455522,512,1020,439
180,3,3,82759.58983452538,509,1020,439
181,3,3,82759.59983449556,511,1020,439
182,3,3,82759.60983446572,510,1020,440
183,3,3,82759.6198344359,510,1020,439
184,3,3,82759.62983440606,512,1020,440
185,3,3,82759.63983437623,511,1020,441
186,3,3,82759.6498343464,509,1020,440
187,3,3,82759.65983431657,505,1020,441
188,3,3,82759.66983428675,505,1019,440
189,3,3,82759.67983425691,506,1020,440
190,3,3,82759.68983422709,507,1020,442
191,3,3,82759.69983419725,502,1020,443
192,3,3,82759.70983416743,501,1020,444
193,3,3,82759.71983413759,504,1020,444
194,3,3,82759.72983410775,509,1020,446
195,3,3,82759.73983407793,514,1020,448
196,3,3,82759.7498340481,514,1020,450
197,3,3,82759.75983401827,513,1020,450
198,3,3,82759.76983398844,512,1020,452
199,3,3,82759.77983395862,514,1020,455
200,3,3,82759.78983392878,511,1020,456
201,3,3,82759.79983389896,510,1020,458
202,3,3,82759.80983386912,507,1020,461
203,3,3,82759.81983383928,498,1020,463
204,3,3,82759.82983380946,480,1019,466
205,3,3,82759.83983377962,510,1020,468
206,3,3,82759.8498337498,546,1020,471
207,3,3,82759.85983371997,565,1020,473
208,3,3,82759.86983369014,577,1020,476
209,3,3,82759.8798336603,537,1020,480
210,3,3,82759.88983363047,510,1020,483
211,3,3,82759.89983360065,487,1020,484
212,3,3,82759.90983357081,484,1020,488
213,3,3,82759.91983354099,484,1020,489
214,3,3,82759.92983351115,483,1020,492
215,3,3,82759.93983348133,484,1019,493
216,3,3,82759.9498334515,487,1020,496
217,3,3,82759.95983342167,487,1020,497
218,3,3,82759.96983339183,488,1020,500
219,3,3,82759.979833362,489,1020,503
220,3,3,82759.98983333218,488,1020,504
221,3,3,82759.99983330234,490,1020,506
222,3,3,82760.00983327252,489,1020,507
223,3,3,82760.01983324268,485,1020,508
224,3,3,82760.02983321286,485,1020,508
225,3,3,82760.03983318302,486,1020,509
226,3,3,82760.0498331532,487,1020,508
227,3,3,82760.05983312336,487,1020,508
228,3,3,82760.06983309353,492,1020,507
229,3,3,82760.0798330637,498,1020,505
230,3,3,82760.08983303387,506,1020,505
231,3,3,82760.09983300405,515,1020,505
232,3,3,82760.10983297421,526,1020,503
233,3,3,82760.11983294439,532,1020,501
234,3,3,82760.12983291455,535,1020,502
235,3,3,82760.13983288471,537,1020,500
236,3,3,82760.14983285489,536,1020,499
237,3,3,82760.15983282505,535,1020,500
238,3,3,82760.16983279523,533,1020,500
239,3,3,82760.1798327654,531,1020,500
240,3,3,82760.18983273557,526,1020,502
241,3,3,82760.19983270574,525,1020,503
242,3,3,82760.20983267592,524,1020,504
243,3,3,82760.21983264608,521,1020,506
244,3,3,82760.22983261624,517,1020,506
245,3,3,82760.23983258642,515,1020,507
246,3,3,82760.24983255658,515,1020,508
247,3,3,82760.25983252676,511,1020,508
248,3,3,82760.26983249692,511,1019,508
249,3,3,82760.2798324671,512,1020,509
250,3,3,82760.28983243727,511,1020,510
251,3,3,82760.29983240744,510,1020,511
252,3,3,82760.3098323776,509,1020,510
253,3,3,82760.31983234777,511,1020,511
254,3,3,82760.32983231795,510,1020,512
255,3,3,82760.33983228811,511,1020,511
256,3,3,82760.34983225829,512,1020,511
257,3,3,82760.35983222845,510,1020,510
258,3,3,82760.36983219863,511,1020,511
259,3,3,82760.3798321688,509,1020,511
260,3,3,82760.38983213897,510,1020,510
261,3,3,82760.39983210913,510,1020,509
262,3,3,82760.4098320793,510,1020,509
263,3,3,82760.41983204948,507,1020,509
264,3,3,82760.42983201964,508,1020,508
265,3,3,82760.43983198982,507,1020,508
266,3,3,82760.44983195998,507,1020,507
267,3,3,82760.45983193016,502,1020,507
268,3,3,82760.46983190032,503,1020,506
269,3,3,82760.47983187049,503,1020,506
270,3,3,82760.48983184066,504,1020,505
271,3,3,82760.49983181083,516,1020,504
272,3,3,82760.509831781,515,1020,503
273,3,3,82760.51983175117,515,1020,500
274,3,3,82760.52983172135,516,1020,499
275,3,3,82760.53983169151,514,1020,498
276,3,3,82760.54983166169,513,1020,498
277,3,3,82760.55983163185,511,1020,496
278,3,3,82760.56983160201,512,1020,496
279,3,3,82760.57983157219,506,1020,495
280,3,3,82760.58983154235,483,1020,495
281,3,3,82760.59983151253,497,1020,493
282,3,3,82760.6098314827,540,1020,493
283,3,3,82760.61983145287,560,1020,492
284,3,3,82760.62983142304,577,1020,492
285,3,3,82760.63983139321,563,1020,493
286,3,3,82760.64983136338,523,1020,494
287,3,3,82760.65983133354,492,1020,493
288,3,3,82760.66983130372,483,1020,492
289,3,3,82760.67983127388,481,1020,492
290,3,3,82760.68983124406,481,1020,491
291,3,3,82760.69983121422,484,1020,492
292,3,3,82760.7098311844,483,1020,491
293,3,3,82760.71983115457,487,1020,489
294,3,3,82760.72983112473,487,1020,490
295,3,3,82760.7398310949,487,1020,491
296,3,3,82760.74983106507,487,1020,492
297,3,3,82760.75983103525,487,1020,493
298,3,3,82760.76983100541,486,1020,495
299,3,3,82760.77983097559,485,1020,496
300,3,3,82760.78983094575,484,1020,497
301,3,3,82760.79983091593,483,1020,499
302,3,3,82760.8098308861,483,1020,501
303,3,3,82760.81983085626,484,1020,502
304,3,3,82760.82983082643,487,1020,503
305,3,3,82760.8398307966,493,1020,504
306,3,3,82760.84983076678,495,1020,504
307,3,3,82760.85983073694,509,1020,504
308,3,3,82760.86983070712,516,1020,503
309,3,3,82760.87983067728,527,1020,504
310,3,3,82760.88983064746,535,1020,503
311,3,3,82760.89983061762,540,1020,503
312,3,3,82760.90983058779,540,1020,504
313,3,3,82760.91983055796,539,1020,504
314,3,3,82760.92983052813,539,1020,505
315,3,3,82760.9398304983,536,1020,505
316,3,3,82760.94983046847,531,1020,506
317,3,3,82760.95983043865,530,1020,508
318,3,3,82760.96983040881,526,1020,510
319,3,3,82760.97983037897,523,1020,511
320,3,3,82760.98983034915,521,1020,512
321,3,3,82760.99983031931,520,1020,513
322,3,3,82761.00983028949,516,1020,514
323,3,3,82761.01983025965,515,1020,516
324,3,3,82761.02983022983,514,1020,516
325,3,3,82761.0398302,516,1020,519
326,3,3,82761.04983017017,512,1020,522
327,3,3,82761.05983014034,512,1020,524
328,3,3,82761.0698301105,512,1020,525
329,3,3,82761.07983008068,510,1020,527
330,3,3,82761.08983005084,510,1020,528
331,3,3,82761.09983002102,510,1020,529
332,3,3,82761.10982999118,512,1020,531
333,3,3,82761.11982996136,509,1020,530
334,3,3,82761.12982993152,510,1020,531
335,3,3,82761.1398299017,511,1020,532
336,3,3,82761.14982987187,511,1020,531
337,3,3,82761.15982984203,510,1019,531
338,3,3,82761.1698298122,510,1020,531
339,3,3,82761.17982978237,510,1020,531
340,3,3,82761.18982975255,507,1020,531
341,3,3,82761.19982972271,506,1020,529
342,3,3,82761.20982969289,506,1020,529
343,3,3,82761.21982966305,508,1020,529
344,3,3,82761.22982963322,505,1020,528
345,3,3,82761.2398296034,502,1020,527
346,3,3,82761.24982957356,503,1020,527
347,3,3,82761.25982954373,508,1020,527
348,3,3,82761.2698295139,518,1020,527
349,3,3,82761.27982948408,514,1020,526
350,3,3,82761.28982945424,514,1020,527
351,3,3,82761.29982942442,512,1020,527
352,3,3,82761.30982939458,512,1020,527
353,3,3,82761.31982936474,513,1020,527
354,3,3,82761.32982933492,510,1020,527
355,3,3,82761.33982930509,512,1020,528
356,3,3,82761.34982927526,506,1020,528
357,3,3,82761.35982924543,490,1020,528
358,3,3,82761.3698292156,487,1020,529
359,3,3,82761.37982918577,527,1020,530
360,3,3,82761.38982915595,557,1020,529
361,3,3,82761.39982912611,571,1020,530
362,3,3,82761.40982909627,570,1020,530
363,3,3,82761.41982906645,529,1020,530
364,3,3,82761.42982903661,494,1020,531
365,3,3,82761.43982900679,484,1020,530
366,3,3,82761.44982897695,482,1019,529
367,3,3,82761.45982894713,484,1020,528
368,3,3,82761.4698289173,485,1020,528
369,3,3,82761.47982888747,486,1020,527
370,3,3,82761.48982885764,485,1020,526
371,3,3,82761.4998288278,487,1020,526
372,3,3,82761.50982879798,486,1020,525
373,3,3,82761.51982876814,489,1020,526
374,3,3,82761.52982873832,487,1020,524
375,3,3,82761.53982870848,487,1020,524
376,3,3,82761.54982867866,489,1020,522
377,3,3,82761.55982864882,485,1020,521
378,3,3,82761.56982861899,483,1020,520
379,3,3,82761.57982858917,485,1020,518
380,3,3,82761.58982855933,487,1020,516
381,3,3,82761.5998285295,487,1020,515
382,3,3,82761.60982849967,494,1020,512
383,3,3,82761.61982846985,498,1020,510
384,3,3,82761.62982844001,503,1020,506
385,3,3,82761.63982841019,515,1020,505
386,3,3,82761.64982838035,526,1020,502
387,3,3,82761.65982835052,534,1020,499
388,3,3,82761.6698283207,538,1020,497
389,3,3,82761.67982829086,541,1020,493
390,3,3,82761.68982826103,537,1020,490
391,3,3,82761.6998282312,538,1020,487
392,3,3,82761.70982820138,536,1020,484
393,3,3,82761.71982817154,532,1020,480
394,3,3,82761.72982814172,530,1020,478
395,3,3,82761.73982811188,528,1020,475
396,3,3,82761.74982808204,525,1020,472
397,3,3,82761.75982805222,520,1020,471
398,3,3,82761.76982802238,520,1020,469
399,3,3,82761.77982799256,519,1020,467
400,3,3,82761.78982796273,517,1020,466
401,3,3,82761.7998279329,514,1020,466
402,3,3,82761.80982790307,513,1020,465
403,3,3,82761.81982787323,511,1020,465
404,3,3,82761.82982784341,511,1020,465
405,3,3,82761.83982781357,511,1020,463
406,3,3,82761.84982778375,511,1020,463
407,3,3,82761.85982775391,511,1020,463
408,3,3,82761.86982772409,510,1020,463
409,3,3,82761.87982769425,512,1020,462
410,3,3,82761.88982766443,510,1020,460
411,3,3,82761.8998276346,512,1020,459
412,3,3,82761.90982760476,508,1020,457
413,3,3,82761.91982757494,509,1020,457
414,3,3,82761.9298275451,509,1020,455
415,3,3,82761.93982751528,509,1020,456
416,3,3,82761.94982748544,509,1019,455
417,3,3,82761.95982745562,508,1020,452
418,3,3,82761.96982742578,506,1020,453
419,3,3,82761.97982739596,507,1020,451
420,3,3,82761.98982736612,508,1020,451
421,3,3,82761.99982733629,505,1020,450
422,3,3,82762.00982730647,504,1020,448
423,3,3,82762.01982727663,501,1020,449
424,3,3,82762.0298272468,501,1019,447
425,3,3,82762.03982721697,508,1020,447
426,3,3,82762.04982718715,512,1020,446
427,3,3,82762.05982715731,514,1020,445
428,3,3,82762.06982712747,511,1020,444
429,3,3,82762.07982709765,513,1020,442
430,3,3,82762.08982706782,511,1020,440
431,3,3,82762.099827038,511,1020,439
432,3,3,82762.10982700816,511,1020,438
433,3,3,82762.11982697833,510,1020,435
434,3,3,82762.1298269485,505,1020,434
435,3,3,82762.13982691868,480,1020,432
436,3,3,82762.14982688884,489,1020,431
437,3,3,82762.159826859,532,1020,430
438,3,3,82762.16982682918,563,1020,429
439,3,3,82762.17982679934,583,1020,430
440,3,3,82762.18982676952,551,1020,430
441,3,3,82762.19982673968,517,1020,431
442,3,3,82762.20982670986,496,1020,429
443,3,3,82762.21982668003,487,1020,429
444,3,3,82762.2298266502,485,1020,430
445,3,3,82762.23982662037,485,1020,430
446,3,3,82762.24982659053,486,1020,430
447,3,3,82762.25982656071,487,1020,430
448,3,3,82762.26982653087,487,1020,432
449,3,3,82762.27982650105,489,1020,434
450,3,3,82762.28982647121,488,1020,435
451,3,3,82762.29982644139,487,1020,436
452,3,3,82762.30982641155,490,1020,438
453,3,3,82762.31982638172,488,1019,438
454,3,3,82762.3298263519,487,1019,438
455,3,3,82762.33982632206,484,1020,438
456,3,3,82762.34982629224,482,1020,437
457,3,3,82762.3598262624,481,1020,437
458,3,3,82762.36982623258,483,1020,435
459,3,3,82762.37982620274,489,1020,434
460,3,3,82762.38982617292,493,1020,432
461,3,3,82762.39982614308,500,1020,432
462,3,3,82762.40982611325,512,1020,432
463,3,3,82762.41982608342,521,1020,432
464,3,3,82762.42982605359,531,1020,432
465,3,3,82762.43982602376,534,1020,433
466,3,3,82762.44982599393,538,1020,434
467,3,3,82762.4598259641,540,1020,436
468,3,3,82762.46982593427,538,1020,439
469,3,3,82762.47982590445,536,1020,441
470,3,3,82762.48982587461,534,1020,444
471,3,3,82762.49982584477,531,1020,445
472,3,3,82762.50982581495,527,1020,449
473,3,3,82762.51982578512,527,1020,453
474,3,3,82762.5298257553,523,1020,456
475,3,3,82762.53982572546,520,1020,460
476,3,3,82762.54982569563,518,1020,463
477,3,3,82762.5598256658,515,1020,467
478,3,3,82762.56982563598,514,1020,471
479,3,3,82762.57982560614,514,1020,475
480,3,3,82762.5898255763,512,1020,479
481,3,3,82762.59982554648,511,1020,483
482,3,3,82762.60982551664,508,1020,488
483,3,3,82762.61982548682,510,1020,494
484,3,3,82762.62982545698,510,1020,498
485,3,3,82762.63982542716,510,1020,502
486,3,3,82762.64982539733,509,1020,506
487,3,3,82762.65982536749,509,1020,510
488,3,3,82762.66982533767,508,1020,513
489,3,3,82762.67982530783,511,1020,517
490,3,3,82762.68982527801,510,1020,520
491,3,3,82762.69982524817,509,1020,524
492,3,3,82762.70982521835,510,1020,526
493,3,3,82762.71982518851,508,1020,528
494,3,3,82762.72982515869,507,1020,532
495,3,3,82762.73982512885,508,1020,535
496,3,3,82762.74982509902,506,1020,537
497,3,3,82762.7598250692,507,1020,539
498,3,3,82762.76982503936,508,1020,539
499,3,3,82762.77982500954,505,1020,541
500,3,3,82762.7898249797,504,1020,543
501,3,3,82762.79982494988,504,1019,543
502,3,3,82762.80982492004,503,1020,543
503,3,3,82762.81982489022,508,1020,545
504,3,3,82762.82982486038,516,1020,546
505,3,3,82762.83982483055,515,1020,546
506,3,3,82762.84982480072,514,1020,547
507,3,3,82762.85982477089,514,1020,547
508,3,3,82762.86982474106,512,1020,548
509,3,3,82762.87982471123,513,1020,548
510,3,3,82762.8898246814,513,1020,550
511,3,3,82762.89982465157,511,1020,551
512,3,3,82762.90982462173,506,1019,551
513,3,3,82762.91982459191,481,1020,551
514,3,3,82762.92982456207,499,1020,553
515,3,3,82762.93982453225,541,1020,553
516,3,3,82762.94982450242,558,1020,553
517,3,3,82762.9598244726,571,1020,553
518,3,3,82762.96982444276,560,1020,555
519,3,3,82762.97982441293,523,1020,556
520,3,3,82762.9898243831,494,1020,555
521,3,3,82762.99982435326,483,1020,554
522,3,3,82763.00982432344,482,1020,555
523,3,3,82763.0198242936,483,1020,555
524,3,3,82763.02982426378,484,1020,554
525,3,3,82763.03982423394,486,1020,553
526,3,3,82763.04982420412,486,1020,552
527,3,3,82763.05982417428,487,1020,553
528,3,3,82763.06982414446,488,1020,553
529,3,3,82763.07982411463,489,1019,553
530,3,3,82763.08982408479,488,1020,553
531,3,3,82763.09982405497,487,1019,552
532,3,3,82763.10982402513,486,1020,550
533,3,3,82763.11982399531,486,1020,551
534,3,3,82763.12982396547,486,1020,553
535,3,3,82763.13982393565,485,1020,556
536,3,3,82763.14982390581,487,1020,560
537,3,3,82763.15982387598,487,1020,565
538,3,3,82763.16982384615,494,1020,572
539,3,3,82763.17982381632,499,1020,577
540,3,3,82763.1898237865,509,1020,584
541,3,3,82763.19982375666,517,1020,590
542,3,3,82763.20982372684,527,1019,595
543,3,3,82763.219823697,533,1020,602
544,3,3,82763.22982366718,536,1020,608
545,3,3,82763.23982363734,539,1020,612
546,3,3,82763.2498236075,538,1020,617
547,3,3,82763.25982357768,535,1020,622
548,3,3,82763.26982354785,535,1020,626
549,3,3,82763.27982351802,532,1020,630
550,3,3,82763.28982348819,528,1020,633
551,3,3,82763.29982345836,527,1020,636
552,3,3,82763.30982342853,525,1020,638
553,3,3,82763.3198233987,521,1020,640
554,3,3,82763.32982336887,519,1020,639
555,3,3,82763.33982333903,518,1020,639
556,3,3,82763.34982330921,515,1020,639
557,3,3,82763.35982327937,515,1020,638
558,3,3,82763.36982324955,513,1020,637
559,3,3,82763.37982321972,512,1020,635
560,3,3,82763.3898231899,512,1020,634
561,3,3,82763.39982316006,511,1020,632
562,3,3,82763.40982313022,511,1020,629
563,3,3,82763.4198231004,508,1020,627
564,3,3,82763.42982307056,509,1020,624
565,3,3,82763.43982304074,510,1020,621
566,3,3,82763.4498230109,511,1020,619
567,3,3,82763.45982298108,510,1020,615
568,3,3,82763.46982295124,510,1020,614
569,3,3,82763.47982292142,509,1020,611
570,3,3,82763.48982289158,510,1020,607
571,3,3,82763.49982286175,509,1020,604
572,3,3,82763.50982283193,507,1019,599
573,3,3,82763.51982280209,507,1019,595
574,3,3,82763.52982277227,506,1020,590
575,3,3,82763.53982274243,504,1020,584
576,3,3,82763.54982271261,503,1020,578
577,3,3,82763.55982268277,500,1020,572
578,3,3,82763.56982265295,500,1020,566
579,3,3,82763.57982262311,506,1020,559
580,3,3,82763.58982259328,513,1020,553
581,3,3,82763.59982256345,514,1020,547
582,3,3,82763.60982253362,514,1020,540
583,3,3,82763.6198225038,514,1020,534
584,3,3,82763.62982247396,513,1020,527
585,3,3,82763.63982244414,513,1020,522
586,3,3,82763.6498224143,514,1020,516
587,3,3,82763.65982238448,511,1020,512
588,3,3,82763.66982235464,507,1020,508
589,3,3,82763.6798223248,492,1020,504
590,3,3,82763.68982229498,487,1020,501
591,3,3,82763.69982226515,525,1020,497
592,3,3,82763.70982223532,552,1020,495
593,3,3,82763.71982220549,566,1020,492
594,3,3,82763.72982217566,573,1020,491
595,3,3,82763.73982214583,535,1020,489
596,3,3,82763.74982211599,499,1020,489
597,3,3,82763.75982208617,484,1020,488
598,3,3,82763.76982205633,483,1020,488
599,3,3,82763.77982202651,482,1020,488
600,3,3,82763.78982199667,482,1020,489
601,3,3,82763.79982196685,484,1019,491
602,3,3,82763.80982193701,486,1019,490
603,3,3,82763.8198219072,487,1020,492
604,3,3,82763.82982187736,487,1020,492
605,3,3,82763.83982184752,488,1020,492
606,3,3,82763.8498218177,486,1020,491
607,3,3,82763.85982178786,486,1020,491
608,3,3,82763.86982175804,485,1020,489
609,3,3,82763.8798217282,483,1020,488
610,3,3,82763.88982169838,483,1020,487
611,3,3,82763.89982166854,481,1020,486
612,3,3,82763.90982163872,483,1020,484
613,3,3,82763.91982160888,487,1020,483
614,3,3,82763.92982157905,490,1020,485
615,3,3,82763.93982154923,496,1020,486
616,3,3,82763.94982151939,505,1020,487
617,3,3,82763.95982148957,514,1020,489
618,3,3,82763.96982145973,525,1020,492
619,3,3,82763.97982142991,534,1020,496
620,3,3,82763.98982140007,540,1020,499
621,3,3,82763.99982137023,543,1020,504
622,3,3,82764.00982134041,542,1020,508
623,3,3,82764.01982131058,541,1020,514
624,3,3,82764.02982128075,536,1020,521
625,3,3,82764.03982125092,534,1020,527
626,3,3,82764.0498212211,532,1020,533
627,3,3,82764.05982119126,529,1020,540
628,3,3,82764.06982116144,526,1020,547
629,3,3,82764.0798211316,524,1019,553
630,3,3,82764.08982110176,518,1020,559
631,3,3,82764.09982107194,520,1020,565
632,3,3,82764.1098210421,515,1019,570
633,3,3,82764.11982101228,516,1020,575
634,3,3,82764.12982098245,515,1020,581
635,3,3,82764.13982095262,506,1020,587
636,3,3,82764.14982092279,506,1020,591
637,3,3,82764.15982089296,512,1020,596
638,3,3,82764.16982086313,510,1020,600
639,3,3,82764.17982083329,518,1020,606
640,3,3,82764.18982080347,514,1020,610
641,3,3,82764.19982077363,514,1020,615
642,3,3,82764.20982074381,511,1020,618
643,3,3,82764.21982071397,510,1020,622
644,3,3,82764.22982068415,508,1019,626
645,3,3,82764.23982065431,508,1020,630
646,3,3,82764.24982062448,506,1020,633
647,3,3,82764.25982059466,505,1020,636
648,3,3,82764.26982056482,504,1020,639
649,3,3,82764.279820535,505,1020,643
650,3,3,82764.28982050516,511,1020,646
651,3,3,82764.29982047534,517,1020,649
652,3,3,82764.3098204455,516,1020,652
653,3,3,82764.31982041568,517,1020,655
654,3,3,82764.32982038584,515,1020,659
655,3,3,82764.339820356,513,1020,663
656,3,3,82764.34982032618,512,1020,666
657,3,3,82764.35982029635,513,1019,670
658,3,3,82764.36982026653,510,1020,673
659,3,3,82764.37982023669,508,1020,676
660,3,3,82764.38982020687,491,1019,678
661,3,3,82764.39982017703,478,1020,680
662,3,3,82764.40982014721,514,1020,682
663,3,3,82764.41982011737,547,1020,684
664,3,3,82764.42982008753,564,1020,685
665,3,3,82764.43982005771,569,1020,688
666,3,3,82764.44982002788,536,1020,689
667,3,3,82764.45981999805,511,1020,691
668,3,3,82764.46981996822,489,1020,692
669,3,3,82764.4798199384,486,1020,694
670,3,3,82764.48981990856,482,1020,694
671,3,3,82764.49981987872,483,1020,695
672,3,3,82764.5098198489,486,1020,696
673,3,3,82764.51981981906,485,1020,697
674,3,3,82764.52981978924,486,1020,700
675,3,3,82764.5398197594,487,1020,702
676,3,3,82764.54981972958,486,1020,703
677,3,3,82764.55981969975,484,1020,703
678,3,3,82764.56981966992,485,1020,703
679,3,3,82764.57981964009,486,1020,700
680,3,3,82764.58981961025,486,1020,699
681,3,3,82764.59981958043,484,1020,696
682,3,3,82764.60981955059,483,1020,692
683,3,3,82764.61981952077,485,1020,689
684,3,3,82764.62981949093,485,1020,685
685,3,3,82764.63981946111,491,1020,682
686,3,3,82764.64981943127,498,1020,678
687,3,3,82764.65981940145,508,1020,673
688,3,3,82764.66981937161,517,1020,670
689,3,3,82764.67981934178,525,1019,665
690,3,3,82764.68981931196,530,1020,661
691,3,3,82764.69981928212,534,1019,656
692,3,3,82764.7098192523,535,1020,651
693,3,3,82764.71981922246,536,1020,646
694,3,3,82764.72981919264,538,1020,639
695,3,3,82764.7398191628,531,1020,632
696,3,3,82764.74981913298,531,1019,624
697,3,3,82764.75981910314,527,1020,615
698,3,3,82764.7698190733,528,1020,607
699,3,3,82764.77981904348,522,1020,596
700,3,3,82764.78981901365,512,1020,587
701,3,3,82764.79981898383,515,1020,577
702,3,3,82764.80981895399,515,1020,569
703,3,3,82764.81981892417,508,1020,562
704,3,3,82764.82981889433,507,1019,556
705,3,3,82764.8398188645,511,1020,551
706,3,3,82764.84981883467,510,1020,547
707,3,3,82764.85981880483,507,1020,542
708,3,3,82764.86981877501,505,1020,537
709,3,3,82764.87981874518,507,1020,534
710,3,3,82764.88981871535,507,1020,527
711,3,3,82764.89981868552,508,1020,521
712,3,3,82764.9098186557,511,1020,515
713,3,3,82764.91981862586,511,1020,508
714,3,3,82764.92981859602,509,1020,499
715,3,3,82764.9398185662,508,1020,489
716,3,3,82764.94981853636,513,1020,482
717,3,3,82764.95981850654,507,1020,472
718,3,3,82764.9698184767,503,1020,465
719,3,3,82764.97981844688,504,1020,456
720,3,3,82764.98981841705,504,1020,451
721,3,3,82764.99981838722,504,1020,445
722,3,3,82765.00981835739,504,1020,442
723,3,3,82765.01981832755,506,1020,440
724,3,3,82765.02981829773,516,1020,436
725,3,3,82765.03981826789,521,1020,434
726,3,3,82765.04981823807,515,1020,432
727,3,3,82765.05981820823,513,1020,431
728,3,3,82765.06981817841,513,1020,428
729,3,3,82765.07981814857,516,1020,424
730,3,3,82765.08981811874,512,1020,421
731,3,3,82765.09981808891,520,1020,419
732,3,3,82765.10981805908,508,1020,416
733,3,3,82765.11981802926,505,1020,414
734,3,3,82765.12981799942,479,1020,411
735,3,3,82765.1398179696,509,1020,409
736,3,3,82765.14981793976,541,1020,407
737,3,3,82765.15981790994,562,1020,408
738,3,3,82765.1698178801,588,1020,409
739,3,3,82765.17981785026,556,1020,412
740,3,3,82765.18981782044,514,1020,415
741,3,3,82765.1998177906,490,1020,417
742,3,3,82765.20981776078,485,1019,421
743,3,3,82765.21981773095,480,1020,424
744,3,3,82765.22981770113,480,1020,427
745,3,3,82765.23981767129,484,1020,431
746,3,3,82765.24981764147,489,1020,434
747,3,3,82765.25981761163,488,1020,438
748,3,3,82765.2698175818,486,1019,443
749,3,3,82765.27981755197,489,1019,447
750,3,3,82765.28981752213,488,1020,452
751,3,3,82765.29981749231,491,1020,458
752,3,3,82765.30981746248,486,1020,463
753,3,3,82765.31981743265,484,1020,469
754,3,3,82765.32981740282,484,1020,475
755,3,3,82765.33981737298,485,1020,482
756,3,3,82765.34981734316,481,1020,489
757,3,3,82765.35981731332,486,1020,494
758,3,3,82765.3698172835,491,1020,500
759,3,3,82765.37981725366,494,1020,504
760,3,3,82765.38981722384,502,1020,508
761,3,3,82765.399817194,517,1020,510
762,3,3,82765.40981716418,518,1020,513
763,3,3,82765.41981713435,531,1020,516
764,3,3,82765.42981710451,538,1020,518
765,3,3,82765.43981707469,540,1020,519
766,3,3,82765.44981704485,537,1020,521
767,3,3,82765.45981701503,542,1020,524
768,3,3,82765.46981698519,537,1020,527
769,3,3,82765.47981695537,539,1020,529
770,3,3,82765.48981692553,530,1020,534
771,3,3,82765.49981689571,530,1020,538
772,3,3,82765.50981686587,523,1020,543
773,3,3,82765.51981683604,521,1020,550
774,3,3,82765.52981680621,518,1020,555
775,3,3,82765.53981677638,518,1020,562
776,3,3,82765.54981674656,516,1020,571
777,3,3,82765.55981671672,512,1020,579
778,3,3,82765.5698166869,514,1019,589
779,3,3,82765.57981665706,516,1020,598
780,3,3,82765.58981662724,515,1020,608
781,3,3,82765.5998165974,515,1020,616
782,3,3,82765.60981656756,513,1020,624
783,3,3,82765.61981653774,511,1020,630
784,3,3,82765.6298165079,513,1020,634
785,3,3,82765.63981647808,513,1020,637
786,3,3,82765.64981644825,512,1020,638
787,3,3,82765.65981641843,513,1020,637
788,3,3,82765.66981638859,507,1020,637
789,3,3,82765.67981635875,504,1020,637
790,3,3,82765.68981632893,504,1020,636
791,3,3,82765.6998162991,506,1020,636
792,3,3,82765.70981626927,504,1020,638
793,3,3,82765.71981623943,500,1020,640
794,3,3,82765.72981620961,500,1020,643
795,3,3,82765.73981617978,508,1020,647
796,3,3,82765.74981614995,517,1020,651
797,3,3,82765.75981612012,518,1020,656
798,3,3,82765.76981609028,516,1020,660
799,3,3,82765.77981606046,517,1020,665
800,3,3,82765.78981603062,515,1020,668
801,3,3,82765.7998160008,512,1020,672
802,3,3,82765.80981597096,513,1020,676
803,3,3,82765.81981594114,511,1020,680
804,3,3,82765.8298159113,505,1020,683
805,3,3,82765.83981588148,483,1020,686
806,3,3,82765.84981585164,487,1020,689
807,3,3,82765.85981582181,531,1020,690
808,3,3,82765.86981579199,556,1020,692
809,3,3,82765.87981576215,583,1020,694
810,3,3,82765.88981573233,575,1020,695
811,3,3,82765.89981570249,532,1020,696
812,3,3,82765.90981567267,492,1020,696
813,3,3,82765.91981564283,479,1020,696
814,3,3,82765.929815613,480,1020,696
815,3,3,82765.93981558317,481,1020,696
816,3,3,82765.94981555334,479,1019,697
817,3,3,82765.95981552351,481,1020,698
818,3,3,82765.96981549368,483,1020,700
819,3,3,82765.97981546386,483,1020,701
820,3,3,82765.98981543402,483,1020,703
821,3,3,82765.9998154042,485,1020,704
822,3,3,82766.00981537436,485,1020,705
823,3,3,82766.01981534452,485,1020,706
824,3,3,82766.0298153147,486,1020,707
825,3,3,82766.03981528486,482,1020,707
826,3,3,82766.04981525504,480,1020,709
827,3,3,82766.0598152252,476,1020,709
828,3,3,82766.06981519538,481,1020,710
829,3,3,82766.07981516555,484,1020,710
830,3,3,82766.08981513573,489,1020,711
831,3,3,82766.09981510589,495,1020,711
832,3,3,82766.10981507605,507,1020,712
833,3,3,82766.11981504623,515,1020,713
834,3,3,82766.1298150164,529,1020,715
835,3,3,82766.13981498657,539,1020,717
836,3,3,82766.14981495673,543,1020,719
837,3,3,82766.15981492691,542,1020,721
838,3,3,82766.16981489708,539,1020,723
839,3,3,82766.17981486724,536,1020,724
840,3,3,82766.18981483742,535,1020,726
841,3,3,82766.19981480758,531,1020,728
842,3,3,82766.20981477776,527,1020,728
843,3,3,82766.21981474792,530,1020,729
844,3,3,82766.2298147181,525,1020,730
845,3,3,82766.23981468826,520,1020,730
846,3,3,82766.24981465844,520,1020,729
847,3,3,82766.2598146286,518,1020,729
848,3,3,82766.26981459877,515,1020,728
849,3,3,82766.27981456894,516,1020,727
850,3,3,82766.28981453911,511,1020,726
851,3,3,82766.29981450929,512,1020,724
852,3,3,82766.30981447945,514,1020,721
853,3,3,82766.31981444963,510,1020,718
854,3,3,82766.32981441979,508,1020,715
855,3,3,82766.33981438997,510,1020,711
856,3,3,82766.34981436013,518,1020,707
857,3,3,82766.3598143303,510,1020,704
858,3,3,82766.36981430047,504,1020,699
859,3,3,82766.37981427064,505,1020,695
860,3,3,82766.38981424081,502,1020,689
861,3,3,82766.39981421098,499,1020,683
862,3,3,82766.40981418116,504,1020,678
863,3,3,82766.41981415132,505,1020,671
864,3,3,82766.42981412148,507,1020,666
865,3,3,82766.43981409166,516,1020,659
866,3,3,82766.44981406182,518,1020,654
867,3,3,82766.459814032,516,1020,647
868,3,3,82766.46981400216,515,1020,640
869,3,3,82766.47981397234,516,1020,634
870,3,3,82766.4898139425,513,1020,627
871,3,3,82766.49981391268,513,1020,620
872,3,3,82766.50981388285,514,1020,612
873,3,3,82766.51981385301,509,1020,605
874,3,3,82766.52981382319,493,1020,597
875,3,3,82766.53981379335,481,1020,588
876,3,3,82766.54981376353,512,1020,580
877,3,3,82766.5598137337,547,1020,574
878,3,3,82766.56981370387,567,1020,567
879,3,3,82766.57981367403,570,1020,561
880,3,3,82766.58981364421,535,1020,557
881,3,3,82766.59981361438,513,1020,553
882,3,3,82766.60981358454,491,1020,550
883,3,3,82766.61981355472,487,1020,548
884,3,3,82766.62981352488,482,1020,549
885,3,3,82766.63981349506,485,1020,550
886,3,3,82766.64981346522,486,1020,551
887,3,3,82766.6598134354,486,1020,556
888,3,3,82766.66981340556,482,1020,559
889,3,3,82766.67981337574,488,1020,562
890,3,3,82766.6898133459,489,1020,565
891,3,3,82766.69981331607,487,1020,565
892,3,3,82766.70981328624,485,1020,566
893,3,3,82766.71981325641,489,1020,564
894,3,3,82766.72981322659,486,1020,561
895,3,3,82766.73981319675,481,1020,556
896,3,3,82766.74981316693,479,1020,549
897,3,3,82766.75981313709,481,1019,539
898,3,3,82766.76981310725,485,1020,527
899,3,3,82766.77981307743,488,1020,513
900,3,3,82766.7898130476,496,1020,499
901,3,3,82766.79981301777,504,1020,485
902,3,3,82766.80981298794,516,1020,471
903,3,3,82766.81981295811,524,1020,459
904,3,3,82766.82981292828,529,1020,446
905,3,3,82766.83981289846,534,1020,436
906,3,3,82766.84981286862,536,1020,428
907,3,3,82766.85981283878,535,1020,421
908,3,3,82766.86981280896,533,1020,418
909,3,3,82766.87981277912,530,1020,414
910,3,3,82766.8898127493,528,1020,413
911,3,3,82766.89981271946,527,1020,412
912,3,3,82766.90981268964,524,1020,414
913,3,3,82766.9198126598,523,1020,415
914,3,3,82766.92981262998,521,1020,415
915,3,3,82766.93981260015,518,1020,414
916,3,3,82766.94981257031,515,1020,411
917,3,3,82766.95981254049,515,1020,410
918,3,3,82766.96981251065,513,1020,406
919,3,3,82766.97981248083,512,1020,405
920,3,3,82766.989812451,512,1020,403
921,3,3,82766.99981242117,509,1020,401
922,3,3,82767.00981239133,511,1020,401
923,3,3,82767.0198123615,511,1020,402
924,3,3,82767.02981233168,509,1020,401
925,3,3,82767.03981230184,512,1020,404
926,3,3,82767.04981227202,512,1020,405
927,3,3,82767.05981224218,509,1020,409
928,3,3,82767.06981221236,512,1020,414
929,3,3,82767.07981218252,507,1020,419
930,3,3,82767.0898121527,507,1020,424
931,3,3,82767.09981212286,505,1020,432
932,3,3,82767.10981209303,506,1020,438
933,3,3,82767.1198120632,502,1020,444
934,3,3,82767.12981203337,502,1020,450
935,3,3,82767.13981200354,505,1020,456
936,3,3,82767.14981197371,512,1020,463
937,3,3,82767.15981194389,513,1020,470
938,3,3,82767.16981191405,513,1020,477
939,3,3,82767.17981188423,514,1020,484
940,3,3,82767.18981185439,512,1020,489
941,3,3,82767.19981182455,511,1020,495
942,3,3,82767.20981179473,511,1020,499
943,3,3,82767.2198117649,512,1020,502
944,3,3,82767.22981173507,507,1020,504
945,3,3,82767.23981170524,493,1020,505
946,3,3,82767.24981167541,483,1020,505
947,3,3,82767.25981164558,524,1020,503
948,3,3,82767.26981161574,552,1020,500
949,3,3,82767.27981158592,565,1020,498
950,3,3,82767.28981155608,575,1020,497
951,3,3,82767.29981152626,538,1020,495
952,3,3,82767.30981149642,500,1020,494
953,3,3,82767.3198114666,481,1020,492
954,3,3,82767.32981143676,478,1020,491
955,3,3,82767.33981140694,478,1020,492
956,3,3,82767.3498113771,481,1020,491
957,3,3,82767.35981134727,483,1020,492
958,3,3,82767.36981131745,483,1020,491
959,3,3,82767.37981128761,485,1020,492
960,3,3,82767.38981125779,487,1020,491
961,3,3,82767.39981122795,488,1020,490
962,3,3,82767.40981119813,489,1020,488
963,3,3,82767.41981116829,487,1020,486
964,3,3,82767.42981113847,488,1020,482
965,3,3,82767.43981110863,486,1020,479
966,3,3,82767.4498110788,486,1020,474
967,3,3,82767.45981104898,482,1020,469
968,3,3,82767.46981101914,483,1020,462
969,3,3,82767.47981098932,487,1020,456
970,3,3,82767.48981095948,491,1020,451
971,3,3,82767.49981092966,497,1020,447
972,3,3,82767.50981089982,506,1020,442
973,3,3,82767.51981086998,516,1020,437
974,3,3,82767.52981084016,527,1020,435
975,3,3,82767.53981081033,534,1020,433
976,3,3,82767.5498107805,540,1020,433
977,3,3,82767.55981075067,541,1020,434
978,3,3,82767.56981072084,539,1020,435
979,3,3,82767.57981069101,538,1020,439
980,3,3,82767.58981066119,537,1020,443
981,3,3,82767.59981063135,534,1020,447
982,3,3,82767.60981060151,531,1020,451
983,3,3,82767.61981057169,528,1020,455
984,3,3,82767.62981054185,525,1020,459
985,3,3,82767.63981051203,525,1020,462
986,3,3,82767.6498104822,520,1020,464
987,3,3,82767.65981045237,518,1020,465
988,3,3,82767.66981042254,515,1020,466
989,3,3,82767.67981039271,515,1020,468
990,3,3,82767.68981036288,513,1020,470
991,3,3,82767.69981033304,513,1020,470
992,3,3,82767.70981030322,511,1020,473
993,3,3,82767.71981027338,512,1020,477
994,3,3,82767.72981024356,511,1020,480
995,3,3,82767.73981021372,511,1020,484
996,3,3,82767.7498101839,512,1020,488
997,3,3,82767.75981015406,510,1020,492
998,3,3,82767.76981012424,507,1020,496
999,3,3,82767.7798100944,504,1020,500
1000,3,3,82767.78981006457,505,1020,503
1001,3,3,82767.79981003475,506,1020,507
1002,3,3,82767.80981000491,506,1020,510
1003,3,3,82767.81980997509,504,1020,512
1004,3,3,82767.82980994525,501,1020,513
1005,3,3,82767.83980991543,506,1020,514
1006,3,3,82767.84980988559,512,1020,515
1007,3,3,82767.85980985576,516,1020,514
1008,3,3,82767.86980982593,515,1020,514
1009,3,3,82767.8798097961,515,1020,512
1010,3,3,82767.88980976627,513,1020,511
1011,3,3,82767.89980973644,513,1020,508
1012,3,3,82767.90980970662,513,1020,504
1013,3,3,82767.91980967678,515,1020,501
1014,3,3,82767.92980964696,512,1020,497
1015,3,3,82767.93980961712,498,1020,492
1016,3,3,82767.94980958728,473,1020,489
1017,3,3,82767.95980955746,511,1020,487
1018,3,3,82767.96980952763,555,1020,485
1019,3,3,82767.9798094978,575,1020,482
1020,3,3,82767.98980946797,597,1020,484
1021,3,3,82767.99980943814,556,1020,486
1022,3,3,82768.00980940831,511,1020,487
1023,3,3,82768.01980937849,485,1020,490
1024,3,3,82768.02980934865,478,1020,494
1025,3,3,82768.03980931881,475,1020,499
1026,3,3,82768.04980928899,476,1020,504
1027,3,3,82768.05980925915,477,1020,510
1028,3,3,82768.06980922933,481,1020,517
1029,3,3,82768.0798091995,483,1020,523
1030,3,3,82768.08980916967,482,1020,532
1031,3,3,82768.09980913984,486,1020,541
1032,3,3,82768.10980911,483,1020,549
1033,3,3,82768.11980908018,482,1020,556
1034,3,3,82768.12980905034,484,1020,562
1035,3,3,82768.13980902052,484,1020,567
1036,3,3,82768.14980899068,480,1020,570
1037,3,3,82768.15980896086,480,1020,574
1038,3,3,82768.16980893102,480,1020,575
1039,3,3,82768.1798089012,481,1020,575
1040,3,3,82768.18980887136,486,1020,574
1041,3,3,82768.19980884153,492,1020,574
1042,3,3,82768.2098088117,502,1020,572
1043,3,3,82768.21980878187,512,1020,571
1044,3,3,82768.22980875205,524,1020,570
1045,3,3,82768.23980872221,534,1020,570
1046,3,3,82768.24980869239,542,1020,572
1047,3,3,82768.25980866255,544,1020,573
1048,3,3,82768.26980863273,545,1020,576
1049,3,3,82768.27980860289,542,1020,579
1050,3,3,82768.28980857306,539,1020,582
1051,3,3,82768.29980854323,536,1020,584
1052,3,3,82768.3098085134,533,1020,587
1053,3,3,82768.31980848357,529,1020,591
1054,3,3,82768.32980845374,528,1020,594
1055,3,3,82768.33980842392,526,1020,596
1056,3,3,82768.34980839408,523,1020,598
1057,3,3,82768.35980836424,520,1020,599
1058,3,3,82768.36980833442,517,1020,601
1059,3,3,82768.37980830458,516,1020,601
1060,3,3,82768.38980827476,514,1020,604
1061,3,3,82768.39980824493,513,1020,604
1062,3,3,82768.4098082151,512,1020,605
1063,3,3,82768.41980818527,513,1020,606
1064,3,3,82768.42980815544,511,1020,606
1065,3,3,82768.43980812561,511,1020,607
1066,3,3,82768.44980809577,512,1020,607
1067,3,3,82768.45980806595,510,1020,608
1068,3,3,82768.46980803611,510,1020,608
1069,3,3,82768.47980800629,511,1020,609
1070,3,3,82768.48980797645,507,1020,609
1071,3,3,82768.49980794663,507,1020,609
1072,3,3,82768.5098079168,506,1020,611
1073,3,3,82768.51980788697,505,1020,610
1074,3,3,82768.52980785714,504,1020,611
1075,3,3,82768.5398078273,502,1020,613
1076,3,3,82768.54980779748,501,1020,614
1077,3,3,82768.55980776764,507,1020,615
1078,3,3,82768.56980773782,513,1020,615
1079,3,3,82768.57980770798,515,1020,615
1080,3,3,82768.58980767816,514,1020,616
1081,3,3,82768.59980764832,515,1020,615
1082,3,3,82768.60980761849,512,1020,614
1083,3,3,82768.61980758866,512,1020,612
1084,3,3,82768.62980755883,512,1020,611
1085,3,3,82768.639807529,512,1020,609
1086,3,3,82768.64980749917,507,1020,607
1087,3,3,82768.65980746935,486,1020,605
1088,3,3,82768.66980743951,474,1020,604
1089,3,3,82768.67980740969,516,1020,603
1090,3,3,82768.68980737985,552,1020,602
1091,3,3,82768.69980735001,575,1020,601
1092,3,3,82768.70980732019,579,1020,600
1093,3,3,82768.71980729036,540,1020,600
1094,3,3,82768.72980726053,509,1020,598
1095,3,3,82768.7398072307,486,1020,598
1096,3,3,82768.74980720087,480,1020,595
1097,3,3,82768.75980717104,481,1020,594
1098,3,3,82768.76980714122,482,1020,593
1099,3,3,82768.77980711138,481,1020,591
1100,3,3,82768.78980708154,483,1020,590
1101,3,3,82768.79980705172,484,1020,589
1102,3,3,82768.80980702188,487,1020,590
1103,3,3,82768.81980699206,486,1020,588
1104,3,3,82768.82980696223,486,1020,589
1105,3,3,82768.8398069324,486,1020,588
1106,3,3,82768.84980690257,483,1020,588
1107,3,3,82768.85980687274,481,1020,587
1108,3,3,82768.86980684291,480,1020,587
1109,3,3,82768.87980681307,479,1020,585
1110,3,3,82768.88980678325,479,1020,583
1111,3,3,82768.89980675341,483,1020,582
1112,3,3,82768.90980672359,488,1020,580
1113,3,3,82768.91980669375,496,1020,577
1114,3,3,82768.92980666393,505,1020,575
1115,3,3,82768.9398066341,515,1020,573
1116,3,3,82768.94980660426,526,1020,572
1117,3,3,82768.95980657444,535,1020,570
1118,3,3,82768.9698065446,540,1020,568
1119,3,3,82768.97980651478,542,1020,565
1120,3,3,82768.98980648494,542,1020,564
1121,3,3,82768.99980645512,539,1020,562
1122,3,3,82769.00980642528,536,1020,560
1123,3,3,82769.01980639546,533,1020,558
1124,3,3,82769.02980636562,530,1020,557
1125,3,3,82769.03980633579,529,1020,556
1126,3,3,82769.04980630596,525,1020,555
1127,3,3,82769.05980627613,523,1020,553
1128,3,3,82769.0698062463,519,1020,554
1129,3,3,82769.07980621647,516,1020,553
1130,3,3,82769.08980618665,515,1020,553
1131,3,3,82769.09980615681,513,1020,554
1132,3,3,82769.10980612699,514,1020,555
1133,3,3,82769.11980609715,510,1020,556
1134,3,3,82769.12980606731,511,1020,558
1135,3,3,82769.13980603749,512,1020,559
1136,3,3,82769.14980600766,512,1020,560
1137,3,3,82769.15980597783,512,1020,561
1138,3,3,82769.169805948,512,1020,561
1139,3,3,82769.17980591817,512,1020,563
1140,3,3,82769.18980588834,512,1020,563
1141,3,3,82769.1998058585,511,1020,565
1142,3,3,82769.20980582868,511,1020,566
1143,3,3,82769.21980579884,506,1020,567
1144,3,3,82769.22980576902,506,1020,569
1145,3,3,82769.23980573918,505,1020,571
1146,3,3,82769.24980570936,506,1020,572
1147,3,3,82769.25980567953,501,1020,574
1148,3,3,82769.2698056497,500,1020,575
1149,3,3,82769.27980561987,503,1020,575
1150,3,3,82769.28980559003,508,1020,576
1151,3,3,82769.29980556021,515,1020,576
1152,3,3,82769.30980553037,516,1020,576
1153,3,3,82769.31980550055,515,1020,576
1154,3,3,82769.32980547071,514,1020,577
1155,3,3,82769.33980544089,514,1020,576
1156,3,3,82769.34980541105,513,1020,576
1157,3,3,82769.35980538123,513,1020,577
1158,3,3,82769.3698053514,511,1020,578
1159,3,3,82769.37980532156,505,1020,579
1160,3,3,82769.38980529174,487,1020,581
1161,3,3,82769.3998052619,484,1020,582
1162,3,3,82769.40980523208,528,1019,584
1163,3,3,82769.41980520224,559,1020,585
1164,3,3,82769.42980517242,571,1020,585
1165,3,3,82769.43980514258,573,1020,588
1166,3,3,82769.44980511274,536,1020,588
1167,3,3,82769.45980508292,500,1020,589
1168,3,3,82769.46980505309,480,1020,589
1169,3,3,82769.47980502326,478,1020,587
1170,3,3,82769.48980499343,479,1020,587
1171,3,3,82769.4998049636,481,1020,585
1172,3,3,82769.50980493377,483,1020,583
1173,3,3,82769.51980490395,482,1020,581
1174,3,3,82769.52980487411,483,1020,581
1175,3,3,82769.53980484427,484,1020,580
1176,3,3,82769.54980481445,485,1020,579
1177,3,3,82769.55980478461,487,1020,578
1178,3,3,82769.56980475479,486,1020,577
1179,3,3,82769.57980472496,485,1020,575
1180,3,3,82769.58980469513,484,1020,575
1181,3,3,82769.5998046653,482,1020,572
1182,3,3,82769.60980463547,481,1020,571
1183,3,3,82769.61980460564,483,1020,570
1184,3,3,82769.6298045758,486,1020,568
1185,3,3,82769.63980454598,490,1020,566
1186,3,3,82769.64980451614,496,1020,563
1187,3,3,82769.65980448632,508,1020,560
1188,3,3,82769.66980445648,519,1020,559
1189,3,3,82769.67980442666,528,1020,557
1190,3,3,82769.68980439682,536,1020,556
1191,3,3,82769.69980436699,540,1020,554
1192,3,3,82769.70980433717,541,1020,553
1193,3,3,82769.71980430733,539,1020,552
1194,3,3,82769.72980427751,537,1020,552
1195,3,3,82769.73980424767,535,1020,553
1196,3,3,82769.74980421785,532,1020,552
1197,3,3,82769.75980418801,530,1020,553
1198,3,3,82769.76980415819,527,1020,555
1199,3,3,82769.77980412835,525,1020,556
1200,3,3,82769.78980409852,521,1020,558
1201,3,3,82769.7998040687,520,1020,558
1202,3,3,82769.80980403886,519,1020,559
1203,3,3,82769.81980400904,517,1020,559
1204,3,3,82769.8298039792,514,1020,561
1205,3,3,82769.83980394938,514,1020,561
1206,3,3,82769.84980391954,513,1020,563
1207,3,3,82769.85980388972,511,1020,565
1208,3,3,82769.86980385988,511,1020,567
1209,3,3,82769.87980383004,508,1020,568
1210,3,3,82769.88980380022,510,1020,569
1211,3,3,82769.89980377039,511,1020,570
1212,3,3,82769.90980374056,511,1020,572
1213,3,3,82769.91980371073,512,1020,573
1214,3,3,82769.9298036809,511,1020,574
1215,3,3,82769.93980365107,511,1020,575
1216,3,3,82769.94980362125,512,1020,575
1217,3,3,82769.95980359141,510,1020,576
1218,3,3,82769.96980356157,509,1020,577
1219,3,3,82769.97980353175,509,1020,577
1220,3,3,82769.98980350191,508,1020,578
1221,3,3,82769.99980347209,504,1020,579
1222,3,3,82770.00980344226,505,1020,579
1223,3,3,82770.01980341243,505,1020,579
1224,3,3,82770.0298033826,504,1020,579
1225,3,3,82770.03980335276,500,1020,580
1226,3,3,82770.04980332294,499,1020,580
1227,3,3,82770.0598032931,503,1020,581
1228,3,3,82770.06980326328,509,1020,580
1229,3,3,82770.07980323344,515,1020,581
1230,3,3,82770.08980320362,516,1020,582
1231,3,3,82770.09980317378,515,1020,582
1232,3,3,82770.10980314396,513,1020,582
1233,3,3,82770.11980311412,513,1020,582
1234,3,3,82770.12980308429,514,1020,582
1235,3,3,82770.13980305447,513,1020,582
1236,3,3,82770.14980302463,511,1020,582
1237,3,3,82770.1598029948,499,1020,582
1238,3,3,82770.16980296497,474,1020,583
1239,3,3,82770.17980293515,511,1020,582
1240,3,3,82770.18980290531,556,1020,583
1241,3,3,82770.19980287549,579,1020,583
1242,3,3,82770.20980284565,595,1020,584
1243,3,3,82770.21980281582,561,1020,585
1244,3,3,82770.229802786,514,1020,586
1245,3,3,82770.23980275616,482,1020,586
1246,3,3,82770.24980272634,475,1020,585
1247,3,3,82770.2598026965,477,1020,585
1248,3,3,82770.26980266668,476,1020,585
1249,3,3,82770.27980263684,479,1020,585
1250,3,3,82770.289802607,480,1020,585
1251,3,3,82770.29980257718,481,1019,584
1252,3,3,82770.30980254734,483,1020,585
1253,3,3,82770.31980251752,485,1020,586
1254,3,3,82770.32980248769,484,1020,586
1255,3,3,82770.33980245786,485,1020,585
1256,3,3,82770.34980242803,484,1020,584
1257,3,3,82770.3598023982,483,1020,584
1258,3,3,82770.36980236837,480,1020,583
1259,3,3,82770.37980233853,479,1020,583
1260,3,3,82770.38980230871,481,1020,582
1261,3,3,82770.39980227887,483,1020,580
1262,3,3,82770.40980224905,486,1020,579
1263,3,3,82770.41980221921,491,1020,578
1264,3,3,82770.42980218939,500,1020,577
1265,3,3,82770.43980215956,510,1020,575
1266,3,3,82770.44980212973,520,1020,574
1267,3,3,82770.4598020999,531,1020,572
1268,3,3,82770.46980207006,537,1020,572
1269,3,3,82770.47980204024,542,1020,571
1270,3,3,82770.4898020104,543,1020,571
1271,3,3,82770.49980198058,540,1020,571
1272,3,3,82770.50980195074,539,1020,571
1273,3,3,82770.51980192092,536,1020,572
1274,3,3,82770.52980189108,533,1020,572
1275,3,3,82770.53980186125,530,1020,573
1276,3,3,82770.54980183142,527,1020,574
1277,3,3,82770.55980180159,524,1020,575
1278,3,3,82770.56980177177,522,1020,575
1279,3,3,82770.57980174193,519,1020,576
1280,3,3,82770.5898017121,518,1020,577
1281,3,3,82770.59980168227,515,1020,577
1282,3,3,82770.60980165245,515,1020,579
1283,3,3,82770.61980162261,513,1020,580
1284,3,3,82770.62980159278,512,1020,581
1285,3,3,82770.63980156295,512,1020,582
1286,3,3,82770.64980153312,511,1020,582
1287,3,3,82770.6598015033,512,1020,583
1288,3,3,82770.66980147346,511,1020,583
1289,3,3,82770.67980144364,512,1020,585
1290,3,3,82770.6898014138,510,1020,585
1291,3,3,82770.69980138398,510,1020,585
1292,3,3,82770.70980135414,510,1020,586
1293,3,3,82770.7198013243,509,1020,587
1294,3,3,82770.72980129448,508,1020,587
1295,3,3,82770.73980126464,510,1020,588
1296,3,3,82770.74980123482,511,1020,588
1297,3,3,82770.75980120499,510,1020,588
1298,3,3,82770.76980117516,508,1020,589
1299,3,3,82770.77980114533,511,1020,590
1300,3,3,82770.7898011155,510,1020,589
1301,3,3,82770.79980108567,510,1020,590
1302,3,3,82770.80980105583,511,1020,590
1303,3,3,82770.81980102601,511,1020,590
1304,3,3,82770.82980099617,518,1020,591
1305,3,3,82770.83980096635,518,1020,591
1306,3,3,82770.84980093651,509,1020,592
1307,3,3,82770.85980090669,506,1020,593
1308,3,3,82770.86980087686,513,1020,593
1309,3,3,82770.87980084702,503,1020,594
1310,3,3,82770.8898008172,498,1020,595
1311,3,3,82770.89980078736,496,1020,596
1312,3,3,82770.90980075754,500,1020,597
1313,3,3,82770.9198007277,496,1020,599
1314,3,3,82770.92980069788,498,1020,601
1315,3,3,82770.93980066804,503,1020,604
1316,3,3,82770.94980063822,507,1020,607
1317,3,3,82770.95980060838,514,1020,611
1318,3,3,82770.96980057855,512,1020,614
1319,3,3,82770.97980054872,513,1020,617
1320,3,3,82770.98980051889,512,1020,620
1321,3,3,82770.99980048907,512,1020,623
1322,3,3,82771.00980045923,511,1020,625
1323,3,3,82771.0198004294,514,1020,627
1324,3,3,82771.02980039957,508,1020,629
1325,3,3,82771.03980036975,499,1020,631
1326,3,3,82771.04980033991,475,1020,632
1327,3,3,82771.05980031007,497,1020,633
1328,3,3,82771.06980028025,549,1020,635
1329,3,3,82771.07980025042,569,1020,636
1330,3,3,82771.0898002206,584,1020,638
1331,3,3,82771.09980019076,572,1020,639
1332,3,3,82771.10980016094,527,1020,641
1333,3,3,82771.1198001311,491,1020,642
1334,3,3,82771.12980010126,481,1020,642
1335,3,3,82771.13980007144,477,1020,641
1336,3,3,82771.1498000416,475,1020,642
1337,3,3,82771.15980001178,480,1020,641
1338,3,3,82771.16979998194,480,1020,641
1339,3,3,82771.17979995212,482,1020,641
1340,3,3,82771.18979992229,486,1020,641
1341,3,3,82771.19979989246,485,1020,642
1342,3,3,82771.20979986263,487,1020,641
1343,3,3,82771.21979983279,486,1020,641
1344,3,3,82771.22979980297,484,1020,641
1345,3,3,82771.23979977313,483,1020,639
1346,3,3,82771.24979974331,484,1019,638
1347,3,3,82771.25979971347,482,1020,637
1348,3,3,82771.26979968365,480,1020,636
1349,3,3,82771.27979965381,484,1020,635
1350,3,3,82771.28979962399,484,1020,635
1351,3,3,82771.29979959416,491,1020,633
1352,3,3,82771.30979956432,497,1020,632
1353,3,3,82771.3197995345,506,1020,632
1354,3,3,82771.32979950466,519,1020,632
1355,3,3,82771.33979947484,530,1020,632
1356,3,3,82771.349799445,536,1020,631
1357,3,3,82771.35979941518,544,1020,631
1358,3,3,82771.36979938534,545,1020,630
1359,3,3,82771.3797993555,544,1020,629
1360,3,3,82771.38979932568,543,1020,628
1361,3,3,82771.39979929585,541,1020,627
1362,3,3,82771.40979926602,541,1020,626
1363,3,3,82771.41979923619,532,1020,625
1364,3,3,82771.42979920637,529,1020,625
1365,3,3,82771.43979917653,528,1020,624
1366,3,3,82771.4497991467,523,1020,623
1367,3,3,82771.45979911687,521,1020,621
1368,3,3,82771.46979908703,521,1020,620
1369,3,3,82771.47979905721,520,1020,619
1370,3,3,82771.48979902737,515,1020,618
1371,3,3,82771.49979899755,513,1020,617
1372,3,3,82771.50979896772,512,1020,617
1373,3,3,82771.5197989379,511,1020,617
1374,3,3,82771.52979890806,513,1020,615
1375,3,3,82771.53979887824,511,1020,614
1376,3,3,82771.5497988484,511,1020,612
1377,3,3,82771.55979881856,510,1020,610
1378,3,3,82771.56979878874,510,1020,609
1379,3,3,82771.5797987589,509,1020,607
1380,3,3,82771.58979872908,511,1020,605
1381,3,3,82771.59979869924,512,1020,603
1382,3,3,82771.60979866942,508,1020,601
1383,3,3,82771.61979863959,509,1020,600
1384,3,3,82771.62979860975,509,1020,599
1385,3,3,82771.63979857993,507,1020,598
1386,3,3,82771.64979855009,508,1020,595
1387,3,3,82771.65979852027,508,1020,594
1388,3,3,82771.66979849043,510,1019,594
1389,3,3,82771.67979846061,508,1020,592
1390,3,3,82771.68979843077,509,1019,591
1391,3,3,82771.69979840095,508,1020,589
1392,3,3,82771.70979837111,505,1020,588
1393,3,3,82771.71979834128,504,1020,586
1394,3,3,82771.72979831145,501,1019,584
1395,3,3,82771.73979828162,503,1020,583
1396,3,3,82771.7497982518,499,1019,581
1397,3,3,82771.75979822196,500,1020,580
1398,3,3,82771.76979819214,502,1019,578
1399,3,3,82771.7797981623,510,1020,577
1400,3,3,82771.78979813248,517,1020,575
1401,3,3,82771.79979810264,515,1020,574
1402,3,3,82771.8097980728,513,1020,572
1403,3,3,82771.81979804298,513,1020,571
1404,3,3,82771.82979801315,513,1020,570
1405,3,3,82771.83979798332,512,1020,570
1406,3,3,82771.84979795349,514,1020,568
1407,3,3,82771.85979792367,509,1020,568
1408,3,3,82771.86979789383,507,1019,568
1409,3,3,82771.879797864,476,1020,568
1410,3,3,82771.88979783417,485,1020,567
1411,3,3,82771.89979780433,530,1020,568
1412,3,3,82771.90979777451,564,1020,568
1413,3,3,82771.91979774467,588,1020,568
1414,3,3,82771.92979771485,560,1020,569
1415,3,3,82771.93979768502,525,1019,570
1416,3,3,82771.9497976552,497,1020,571
1417,3,3,82771.95979762536,484,1020,571
1418,3,3,82771.96979759552,483,1020,570
1419,3,3,82771.9797975657,482,1019,571
1420,3,3,82771.98979753586,486,1020,570
1421,3,3,82771.99979750604,483,1020,570
1422,3,3,82772.0097974762,483,1020,572
1423,3,3,82772.01979744638,487,1020,572
1424,3,3,82772.02979741654,488,1020,574
1425,3,3,82772.03979738672,484,1020,575
1426,3,3,82772.04979735689,484,1020,577
1427,3,3,82772.05979732705,485,1020,577
1428,3,3,82772.06979729723,488,1020,579
1429,3,3,82772.07979726739,482,1020,580
1430,3,3,82772.08979723757,480,1020,582
1431,3,3,82772.09979720773,482,1020,582
1432,3,3,82772.10979717791,483,1020,583
1433,3,3,82772.11979714807,489,1020,583
1434,3,3,82772.12979711825,493,1020,583
1435,3,3,82772.13979708841,500,1020,582
1436,3,3,82772.14979705858,508,1020,581
1437,3,3,82772.15979702875,520,1020,579
1438,3,3,82772.16979699892,530,1020,576
1439,3,3,82772.1797969691,536,1020,575
1440,3,3,82772.18979693926,543,1020,573
1441,3,3,82772.19979690944,544,1020,572
1442,3,3,82772.2097968796,542,1020,571
1443,3,3,82772.21979684976,538,1020,571
1444,3,3,82772.22979681994,537,1019,570
1445,3,3,82772.2397967901,534,1020,569
1446,3,3,82772.24979676028,529,1019,569
1447,3,3,82772.25979673045,527,1020,569
1448,3,3,82772.26979670062,525,1020,568
1449,3,3,82772.27979667079,522,1019,568
1450,3,3,82772.28979664097,520,1020,567
1451,3,3,82772.29979661113,517,1020,565
1452,3,3,82772.30979658129,516,1020,563
1453,3,3,82772.31979655147,512,1020,562
1454,3,3,82772.32979652163,512,1019,561
1455,3,3,82772.33979649181,512,1020,559
1456,3,3,82772.34979646197,511,1020,558
1457,3,3,82772.35979643215,510,1020,557
1458,3,3,82772.36979640232,510,1020,556
1459,3,3,82772.3797963725,510,1020,554
1460,3,3,82772.38979634266,510,1020,552
1461,3,3,82772.39979631282,509,1020,549
1462,3,3,82772.409796283,510,1020,548
1463,3,3,82772.41979625316,510,1019,547
1464,3,3,82772.42979622334,510,1020,544
1465,3,3,82772.4397961935,510,1020,542
1466,3,3,82772.44979616368,509,1020,541
1467,3,3,82772.45979613384,509,1020,539
1468,3,3,82772.46979610401,509,1020,537
1469,3,3,82772.47979607419,509,1019,535
1470,3,3,82772.48979604435,508,1020,532
1471,3,3,82772.49979601453,508,1020,530
1472,3,3,82772.50979598469,508,1020,527
1473,3,3,82772.51979595487,507,1020,527
1474,3,3,82772.52979592503,505,1020,525
1475,3,3,82772.53979589521,502,1020,523
1476,3,3,82772.54979586537,505,1020,522
1477,3,3,82772.55979583554,504,1020,522
1478,3,3,82772.56979580571,504,1019,521
1479,3,3,82772.57979577588,500,1020,519
1480,3,3,82772.58979574605,501,1020,519
1481,3,3,82772.59979571622,505,1020,519
1482,3,3,82772.6097956864,510,1020,519
1483,3,3,82772.61979565656,515,1020,517
1484,3,3,82772.62979562674,516,1019,516
1485,3,3,82772.6397955969,515,1020,515
1486,3,3,82772.64979556706,514,1020,512
1487,3,3,82772.65979553724,512,1020,511
1488,3,3,82772.6697955074,512,1020,509
1489,3,3,82772.67979547758,512,1020,508
1490,3,3,82772.68979544775,504,1020,507
1491,3,3,82772.69979541792,487,1020,506
1492,3,3,82772.70979538809,483,1019,505
1493,3,3,82772.71979535825,531,1020,505
1494,3,3,82772.72979532843,567,1020,506
1495,3,3,82772.73979529859,584,1019,505
1496,3,3,82772.74979526877,589,1020,505
1497,3,3,82772.75979523893,540,1020,505
1498,3,3,82772.76979520911,498,1020,507
1499,3,3,82772.77979517927,479,1020,507
1500,3,3,82772.78979514945,476,1020,507
1501,3,3,82772.79979511962,477,1020,506
1502,3,3,82772.80979508978,477,1020,507
1503,3,3,82772.81979505996,479,1019,506
1504,3,3,82772.82979503012,482,1020,508
1505,3,3,82772.8397950003,483,1020,508
1506,3,3,82772.84979497046,485,1019,509
1507,3,3,82772.85979494064,484,1020,509
1508,3,3,82772.8697949108,483,1020,509
1509,3,3,82772.87979488098,487,1020,508
1510,3,3,82772.88979485114,484,1019,506
1511,3,3,82772.89979482131,480,1020,506
1512,3,3,82772.90979479149,480,1020,504
1513,3,3,82772.91979476165,480,1020,503
1514,3,3,82772.92979473183,483,1019,503
1515,3,3,82772.93979470199,483,1019,503
1516,3,3,82772.94979467217,486,1020,502
1517,3,3,82772.95979464233,494,1020,503
1518,3,3,82772.96979461251,501,1020,503
1519,3,3,82772.97979458267,513,1020,504
1520,3,3,82772.98979455284,524,1019,507
1521,3,3,82772.99979452301,534,1020,508
1522,3,3,82773.00979449318,540,1020,512
1523,3,3,82773.01979446335,543,1019,514
1524,3,3,82773.02979443352,542,1020,517
1525,3,3,82773.0397944037,541,1019,519
1526,3,3,82773.04979437386,537,1020,522
1527,3,3,82773.05979434402,537,1019,524
1528,3,3,82773.0697943142,532,1020,525
1529,3,3,82773.07979428436,529,1020,527
1530,3,3,82773.08979425454,526,1020,529
1531,3,3,82773.0997942247,523,1019,530
1532,3,3,82773.10979419488,519,1020,529
1533,3,3,82773.11979416505,518,1020,529
1534,3,3,82773.12979413522,515,1020,530
1535,3,3,82773.13979410539,516,1020,529
1536,3,3,82773.14979407555,515,1020,530
1537,3,3,82773.15979404573,512,1020,530
1538,3,3,82773.16979401589,512,1020,531
1539,3,3,82773.17979398607,511,1019,532
1540,3,3,82773.18979395623,511,1020,534
1541,3,3,82773.19979392641,512,1020,536
1542,3,3,82773.20979389657,512,1020,539
1543,3,3,82773.21979386675,513,1020,542
1544,3,3,82773.22979383692,512,1020,544
1545,3,3,82773.23979380708,512,1020,547
1546,3,3,82773.24979377726,510,1020,550
1547,3,3,82773.25979374742,511,1020,552
1548,3,3,82773.2697937176,511,1020,553
1549,3,3,82773.27979368776,510,1020,555
1550,3,3,82773.28979365794,510,1020,556
1551,3,3,82773.2997936281,512,1020,556
1552,3,3,82773.30979359827,506,1020,557
1553,3,3,82773.31979356844,505,1020,557
1554,3,3,82773.3297935386,507,1019,556
1555,3,3,82773.33979350879,505,1020,556
1556,3,3,82773.34979347895,499,1020,555
1557,3,3,82773.35979344913,499,1020,554
1558,3,3,82773.36979341929,500,1020,552
1559,3,3,82773.37979338947,505,1020,551
1560,3,3,82773.38979335963,513,1020,549
1561,3,3,82773.3997933298,517,1020,547
1562,3,3,82773.40979329997,515,1019,546
1563,3,3,82773.41979327014,515,1020,546
1564,3,3,82773.42979324031,517,1019,545
1565,3,3,82773.43979321048,515,1020,546
1566,3,3,82773.44979318065,512,1019,545
1567,3,3,82773.45979315082,510,1020,547
1568,3,3,82773.469793121,503,1020,549
1569,3,3,82773.47979309116,473,1020,550
1570,3,3,82773.48979306132,499,1019,551
1571,3,3,82773.4997930315,548,1020,551
1572,3,3,82773.50979300166,574,1019,552
1573,3,3,82773.51979297184,593,1020,551
1574,3,3,82773.529792942,571,1020,551
1575,3,3,82773.53979291218,524,1020,549
1576,3,3,82773.54979288235,483,1020,546
1577,3,3,82773.55979285251,475,1020,543
1578,3,3,82773.56979282269,475,1019,540
1579,3,3,82773.57979279285,476,1020,537
1580,3,3,82773.58979276303,478,1019,534
1581,3,3,82773.59979273319,478,1020,530
1582,3,3,82773.60979270337,482,1020,527
1583,3,3,82773.61979267353,483,1020,526
1584,3,3,82773.62979264371,484,1020,525
1585,3,3,82773.63979261387,484,1020,523
1586,3,3,82773.64979258404,486,1020,523
1587,3,3,82773.65979255422,486,1020,522
1588,3,3,82773.66979252438,483,1020,523
1589,3,3,82773.67979249456,482,1020,522
1590,3,3,82773.68979246472,479,1019,523
1591,3,3,82773.6997924349,481,1020,525
1592,3,3,82773.70979240506,483,1019,526
1593,3,3,82773.71979237524,485,1020,526
1594,3,3,82773.7297923454,491,1020,527
1595,3,3,82773.73979231557,497,1020,527
1596,3,3,82773.74979228574,507,1020,527
1597,3,3,82773.7597922559,520,1020,525
1598,3,3,82773.76979222608,530,1020,525
1599,3,3,82773.77979219625,540,1019,522
1600,3,3,82773.78979216643,542,1020,521
1601,3,3,82773.79979213659,545,1020,519
1602,3,3,82773.80979210675,542,1020,517
1603,3,3,82773.81979207693,540,1020,513
1604,3,3,82773.8297920471,537,1019,509
1605,3,3,82773.83979201727,534,1020,507
1606,3,3,82773.84979198744,532,1019,504
1607,3,3,82773.85979195761,528,1020,503
1608,3,3,82773.86979192778,525,1020,502
1609,3,3,82773.87979189795,523,1020,503
1610,3,3,82773.88979186812,521,1020,504
1611,3,3,82773.89979183828,516,1020,507
1612,3,3,82773.90979180846,515,1019,511
1613,3,3,82773.91979177862,519,1020,516
1614,3,3,82773.9297917488,515,1020,519
1615,3,3,82773.93979171896,512,1020,524
1616,3,3,82773.94979168914,511,1020,528
1617,3,3,82773.9597916593,510,1020,531
1618,3,3,82773.96979162948,509,1020,533
1619,3,3,82773.97979159965,510,1020,534
1620,3,3,82773.98979156981,512,1020,534
1621,3,3,82773.99979153999,512,1019,533
1622,3,3,82774.00979151015,508,1020,531
1623,3,3,82774.01979148033,509,1020,528
1624,3,3,82774.02979145049,510,1020,527
1625,3,3,82774.03979142067,508,1020,523
1626,3,3,82774.04979139083,507,1020,523
1627,3,3,82774.05979136101,507,1019,521
1628,3,3,82774.06979133117,506,1020,519
1629,3,3,82774.07979130134,506,1020,518
1630,3,3,82774.08979127152,499,1020,517
1631,3,3,82774.09979124168,500,1020,517
1632,3,3,82774.10979121186,503,1019,517
1633,3,3,82774.11979118202,515,1020,519
1634,3,3,82774.1297911522,516,1020,519
1635,3,3,82774.13979112236,513,1020,521
1636,3,3,82774.14979109252,514,1020,522
1637,3,3,82774.1597910627,514,1020,524
1638,3,3,82774.16979103287,512,1020,523
1639,3,3,82774.17979100304,512,1020,523
1640,3,3,82774.1897909732,510,1019,523
1641,3,3,82774.19979094338,504,1020,523
1642,3,3,82774.20979091355,488,1020,520
1643,3,3,82774.21979088373,470,1020,519
1644,3,3,82774.22979085389,516,1020,517
1645,3,3,82774.23979082405,552,1020,516
1646,3,3,82774.24979079423,569,1019,514
1647,3,3,82774.2597907644,581,1020,513
1648,3,3,82774.26979073457,543,1019,512
1649,3,3,82774.27979070474,509,1020,511
1650,3,3,82774.28979067491,486,1020,509
1651,3,3,82774.29979064508,478,1020,508
1652,3,3,82774.30979061525,478,1020,505
1653,3,3,82774.31979058542,481,1019,505
1654,3,3,82774.32979055558,482,1020,506
1655,3,3,82774.33979052576,485,1020,506
1656,3,3,82774.34979049592,485,1020,508
1657,3,3,82774.3597904661,487,1020,511
1658,3,3,82774.36979043626,487,1020,515
1659,3,3,82774.37979040644,487,1019,518
1660,3,3,82774.3897903766,489,1020,521
1661,3,3,82774.39979034677,484,1020,523
1662,3,3,82774.40979031695,482,1020,526
1663,3,3,82774.41979028711,482,1020,526
1664,3,3,82774.42979025729,482,1020,526
1665,3,3,82774.43979022745,483,1019,526
1666,3,3,82774.44979019763,484,1020,524
1667,3,3,82774.45979016779,486,1019,522
1668,3,3,82774.46979013797,495,1020,519
1669,3,3,82774.47979010813,505,1020,516
1670,3,3,82774.4897900783,518,1020,513
1671,3,3,82774.49979004847,527,1020,510
1672,3,3,82774.50979001864,536,1020,505
1673,3,3,82774.51978998882,538,1020,503
1674,3,3,82774.52978995898,543,1020,501
1675,3,3,82774.53978992916,540,1020,498
1676,3,3,82774.54978989932,538,1020,496
1677,3,3,82774.5597898695,531,1020,493
1678,3,3,82774.56978983966,535,1020,491
1679,3,3,82774.57978980982,534,1019,489
1680,3,3,82774.58978978,527,1020,487
1681,3,3,82774.59978975017,524,1020,486
1682,3,3,82774.60978972034,521,1020,487
1683,3,3,82774.6197896905,519,1020,487
1684,3,3,82774.62978966068,519,1019,488
1685,3,3,82774.63978963085,514,1020,490
1686,3,3,82774.64978960101,516,1020,492
1687,3,3,82774.65978957119,512,1020,493
1688,3,3,82774.66978954135,511,1020,496
1689,3,3,82774.67978951153,512,1020,496
1690,3,3,82774.6897894817,511,1020,496
1691,3,3,82774.69978945187,508,1020,495
1692,3,3,82774.70978942204,508,1020,495
1693,3,3,82774.71978939221,510,1020,493
1694,3,3,82774.72978936238,512,1020,490
1695,3,3,82774.73978933254,509,1019,489
1696,3,3,82774.74978930272,505,1020,486
1697,3,3,82774.75978927288,510,1020,485
1698,3,3,82774.76978924306,508,1020,484
1699,3,3,82774.77978921322,504,1020,483
1700,3,3,82774.7897891834,504,1020,483
1701,3,3,82774.79978915356,503,1020,485
1702,3,3,82774.80978912374,505,1019,486
1703,3,3,82774.8197890939,504,1020,488
1704,3,3,82774.82978906407,512,1020,492
1705,3,3,82774.83978903425,514,1019,494
1706,3,3,82774.84978900441,516,1019,497
1707,3,3,82774.85978897459,516,1020,498
1708,3,3,82774.86978894475,515,1019,500
1709,3,3,82774.87978891493,513,1020,501
1710,3,3,82774.88978888509,513,1020,502
1711,3,3,82774.89978885525,509,1020,502
1712,3,3,82774.90978882543,504,1020,502
1713,3,3,82774.9197887956,489,1020,504
1714,3,3,82774.92978876577,483,1020,503
1715,3,3,82774.93978873594,526,1020,505
1716,3,3,82774.94978870612,556,1020,505
1717,3,3,82774.95978867628,573,1020,508
1718,3,3,82774.96978864646,576,1020,511
1719,3,3,82774.97978861662,533,1020,514
1720,3,3,82774.98978858678,499,1020,516
1721,3,3,82774.99978855696,484,1020,518
1722,3,3,82775.00978852712,481,1019,519
1723,3,3,82775.0197884973,480,1020,523
1724,3,3,82775.02978846747,481,1020,524
1725,3,3,82775.03978843764,484,1020,528
1726,3,3,82775.0497884078,483,1020,530
1727,3,3,82775.05978837798,485,1020,533
1728,3,3,82775.06978834815,486,1020,535
1729,3,3,82775.07978831831,489,1020,538
1730,3,3,82775.08978828849,484,1020,539
1731,3,3,82775.09978825865,486,1020,540
1732,3,3,82775.10978822883,486,1020,541
1733,3,3,82775.119788199,486,1020,541
1734,3,3,82775.12978816917,484,1020,541
1735,3,3,82775.13978813933,480,1020,541
1736,3,3,82775.14978810951,484,1020,539
1737,3,3,82775.15978807968,486,1019,538
1738,3,3,82775.16978804984,493,1020,537
1739,3,3,82775.17978802002,499,1020,536
1740,3,3,82775.18978799018,509,1020,534
1741,3,3,82775.19978796036,519,1019,533
1742,3,3,82775.20978793052,528,1020,533
1743,3,3,82775.2197879007,536,1019,531
1744,3,3,82775.22978787086,538,1020,531
1745,3,3,82775.23978784103,540,1020,531
1746,3,3,82775.2497878112,541,1020,531
1747,3,3,82775.25978778137,540,1020,531
1748,3,3,82775.26978775155,534,1020,533
1749,3,3,82775.27978772171,532,1020,533
1750,3,3,82775.28978769189,530,1019,536
1751,3,3,82775.29978766205,528,1020,538
1752,3,3,82775.30978763223,526,1020,539
1753,3,3,82775.31978760239,523,1019,542
1754,3,3,82775.32978757255,520,1019,543
1755,3,3,82775.33978754273,517,1020,545
1756,3,3,82775.3497875129,515,1019,545
1757,3,3,82775.35978748307,514,1020,547
1758,3,3,82775.36978745324,512,1020,549
1759,3,3,82775.37978742342,512,1020,550
1760,3,3,82775.38978739358,514,1020,550
1761,3,3,82775.39978736376,511,1020,550
1762,3,3,82775.40978733392,507,1020,549
1763,3,3,82775.41978730408,511,1020,550
1764,3,3,82775.42978727426,512,1020,547
1765,3,3,82775.43978724442,510,1020,546
1766,3,3,82775.4497872146,508,1020,543
1767,3,3,82775.45978718477,504,1020,540
1768,3,3,82775.46978715494,505,1019,537
1769,3,3,82775.4797871251,508,1020,535
1770,3,3,82775.48978709527,506,1020,533
1771,3,3,82775.49978706545,501,1020,530
1772,3,3,82775.50978703561,501,1020,530
1773,3,3,82775.51978700579,504,1020,530
1774,3,3,82775.52978697595,512,1019,531
1775,3,3,82775.53978694613,515,1020,533
1776,3,3,82775.5497869163,515,1019,535
1777,3,3,82775.55978688647,515,1020,538
1778,3,3,82775.56978685663,515,1020,540
1779,3,3,82775.5797868268,513,1020,542
1780,3,3,82775.58978679698,513,1020,545
1781,3,3,82775.59978676714,512,1020,546
1782,3,3,82775.60978673732,507,1020,547
1783,3,3,82775.61978670748,491,1020,548
1784,3,3,82775.62978667766,476,1020,549
1785,3,3,82775.63978664782,517,1020,549
1786,3,3,82775.649786618,559,1020,550
1787,3,3,82775.65978658816,579,1020,550
1788,3,3,82775.66978655833,590,1020,551
1789,3,3,82775.6797865285,545,1020,552
1790,3,3,82775.68978649867,505,1020,555
1791,3,3,82775.69978646885,481,1020,555
1792,3,3,82775.70978643901,477,1020,556
1793,3,3,82775.71978640919,480,1019,557
1794,3,3,82775.72978637935,479,1020,559
1795,3,3,82775.73978634951,479,1020,559
1796,3,3,82775.74978631969,481,1020,560
1797,3,3,82775.75978628985,483,1020,561
1798,3,3,82775.76978626003,483,1020,563
1799,3,3,82775.7797862302,484,1020,564
1800,3,3,82775.78978620037,486,1020,565
1801,3,3,82775.79978617054,486,1020,566
1802,3,3,82775.80978614072,483,1020,566
1803,3,3,82775.81978611088,482,1020,564
1804,3,3,82775.82978608104,480,1019,564
1805,3,3,82775.83978605122,481,1020,562
1806,3,3,82775.84978602138,483,1020,560
1807,3,3,82775.85978599156,486,1020,558
1808,3,3,82775.86978596172,489,1020,554
1809,3,3,82775.8797859319,495,1020,551
1810,3,3,82775.88978590207,505,1020,547
1811,3,3,82775.89978587224,516,1020,543
1812,3,3,82775.9097858424,527,1020,539
1813,3,3,82775.91978581257,535,1020,534
1814,3,3,82775.92978578275,539,1020,531
1815,3,3,82775.93978575291,540,1020,527
1816,3,3,82775.94978572309,542,1020,525
1817,3,3,82775.95978569325,540,1020,523
1818,3,3,82775.96978566343,537,1020,520
1819,3,3,82775.9797856336,534,1020,519
1820,3,3,82775.98978560377,532,1020,518
1821,3,3,82775.99978557393,529,1019,517
1822,3,3,82776.0097855441,525,1020,517
1823,3,3,82776.01978551428,523,1020,516
1824,3,3,82776.02978548444,520,1020,515
1825,3,3,82776.03978545462,517,1020,515
1826,3,3,82776.04978542478,516,1020,515
1827,3,3,82776.05978539496,514,1020,515
1828,3,3,82776.06978536512,515,1019,516
1829,3,3,82776.07978533529,514,1020,517
1830,3,3,82776.08978530546,513,1020,515
1831,3,3,82776.09978527563,512,1020,516
1832,3,3,82776.1097852458,511,1020,515
1833,3,3,82776.11978521597,510,1020,513
1834,3,3,82776.12978518615,510,1020,512
1835,3,3,82776.13978515631,511,1020,510
1836,3,3,82776.14978512649,509,1020,508
1837,3,3,82776.15978509665,509,1020,506
1838,3,3,82776.16978506681,505,1020,505
1839,3,3,82776.17978503699,504,1020,504
1840,3,3,82776.18978500715,505,1020,504
1841,3,3,82776.19978497733,507,1020,506
1842,3,3,82776.2097849475,502,1020,507
1843,3,3,82776.21978491767,500,1020,509
1844,3,3,82776.22978488784,502,1020,512
1845,3,3,82776.23978485801,508,1020,515
1846,3,3,82776.24978482818,516,1020,518
1847,3,3,82776.25978479834,517,1020,520
1848,3,3,82776.26978476852,516,1020,521
1849,3,3,82776.27978473868,515,1020,522
1850,3,3,82776.28978470886,515,1020,523
1851,3,3,82776.29978467902,513,1020,523
1852,3,3,82776.3097846492,512,1020,523
1853,3,3,82776.31978461937,508,1020,523
1854,3,3,82776.32978458953,499,1020,522
1855,3,3,82776.3397845597,474,1020,521
1856,3,3,82776.34978452987,499,1020,520
1857,3,3,82776.35978450005,542,1019,519
1858,3,3,82776.36978447021,568,1020,519
1859,3,3,82776.37978444039,591,1020,516
1860,3,3,82776.38978441055,554,1020,516
1861,3,3,82776.39978438073,518,1020,515
1862,3,3,82776.4097843509,487,1020,513
1863,3,3,82776.41978432106,480,1020,512
1864,3,3,82776.42978429123,481,1020,511
1865,3,3,82776.4397842614,481,1020,510
1866,3,3,82776.44978423158,482,1020,510
1867,3,3,82776.45978420174,483,1020,509
1868,3,3,82776.46978417192,487,1020,510
1869,3,3,82776.47978414208,486,1020,509
1870,3,3,82776.48978411226,486,1020,511
1871,3,3,82776.49978408242,487,1020,511
1872,3,3,82776.50978405259,486,1020,511
1873,3,3,82776.51978402276,484,1020,510
1874,3,3,82776.52978399293,483,1020,508
1875,3,3,82776.5397839631,481,1019,506
1876,3,3,82776.54978393327,480,1020,504
1877,3,3,82776.55978390345,482,1020,501
1878,3,3,82776.56978387361,483,1020,499
1879,3,3,82776.57978384377,487,1020,495
1880,3,3,82776.58978381395,492,1020,490
1881,3,3,82776.59978378411,501,1020,488
1882,3,3,82776.60978375429,512,1019,483
1883,3,3,82776.61978372445,524,1020,482
1884,3,3,82776.62978369463,532,1020,479
1885,3,3,82776.6397836648,539,1020,478
1886,3,3,82776.64978363497,543,1020,477
1887,3,3,82776.65978360514,541,1020,476
1888,3,3,82776.6697835753,540,1019,476
1889,3,3,82776.67978354548,537,1020,477
1890,3,3,82776.68978351564,536,1020,478
1891,3,3,82776.69978348582,534,1020,479
1892,3,3,82776.70978345598,530,1020,482
1893,3,3,82776.71978342616,527,1020,484
1894,3,3,82776.72978339632,523,1020,485
1895,3,3,82776.7397833665,520,1020,487
1896,3,3,82776.74978333667,519,1020,488
1897,3,3,82776.75978330683,515,1020,488
1898,3,3,82776.769783277,515,1020,490
1899,3,3,82776.77978324717,514,1020,491
1900,3,3,82776.78978321735,512,1020,489
1901,3,3,82776.79978318751,511,1020,491
1902,3,3,82776.80978315769,510,1020,490
1903,3,3,82776.81978312785,511,1019,489
1904,3,3,82776.82978309802,511,1020,488
1905,3,3,82776.8397830682,511,1020,487
1906,3,3,82776.84978303836,511,1020,486
1907,3,3,82776.85978300853,510,1020,486
1908,3,3,82776.8697829787,509,1020,486
1909,3,3,82776.87978294888,508,1020,487
1910,3,3,82776.88978291904,506,1019,488
1911,3,3,82776.89978288922,506,1020,491
1912,3,3,82776.90978285938,507,1020,493
1913,3,3,82776.91978282954,505,1020,495
1914,3,3,82776.92978279972,502,1020,497
1915,3,3,82776.93978276988,501,1020,502
1916,3,3,82776.94978274006,504,1020,505
1917,3,3,82776.95978271023,511,1020,508
1918,3,3,82776.9697826804,515,1020,511
1919,3,3,82776.97978265057,515,1020,513
1920,3,3,82776.98978262075,514,1020,514
1921,3,3,82776.99978259091,513,1020,514
1922,3,3,82777.00978256107,512,1020,515
1923,3,3,82777.01978253125,512,1020,514
1924,3,3,82777.02978250141,512,1020,512
1925,3,3,82777.03978247159,506,1020,511
1926,3,3,82777.04978244175,496,1020,510
1927,3,3,82777.05978241193,479,1020,508
1928,3,3,82777.0697823821,514,1020,506
1929,3,3,82777.07978235227,555,1020,504
1930,3,3,82777.08978232244,572,1020,504
1931,3,3,82777.0997822926,578,1020,503
1932,3,3,82777.10978226278,543,1020,504
1933,3,3,82777.11978223294,510,1020,504
1934,3,3,82777.12978220312,486,1020,504
1935,3,3,82777.13978217328,482,1020,504
1936,3,3,82777.14978214346,481,1020,504
1937,3,3,82777.15978211362,483,1020,506
1938,3,3,82777.16978208379,482,1020,507
1939,3,3,82777.17978205397,483,1020,510
1940,3,3,82777.18978202413,484,1020,512
1941,3,3,82777.1997819943,484,1019,514
1942,3,3,82777.20978196447,486,1020,516
1943,3,3,82777.21978193465,487,1020,517
1944,3,3,82777.22978190481,487,1020,517
1945,3,3,82777.23978187499,486,1020,516
1946,3,3,82777.24978184515,485,1020,516
1947,3,3,82777.25978181532,484,1020,514
1948,3,3,82777.2697817855,483,1020,512
1949,3,3,82777.27978175566,483,1020,510
1950,3,3,82777.28978172583,487,1020,508
1951,3,3,82777.299781696,491,1020,504
1952,3,3,82777.30978166618,497,1020,502
1953,3,3,82777.31978163634,505,1020,500
1954,3,3,82777.32978160652,515,1020,498
1955,3,3,82777.33978157668,526,1020,497
1956,3,3,82777.34978154684,534,1020,495
1957,3,3,82777.35978151702,538,1020,495
1958,3,3,82777.36978148718,540,1020,496
1959,3,3,82777.37978145736,538,1020,496
1960,3,3,82777.38978142753,536,1020,498
1961,3,3,82777.3997813977,535,1020,498
1962,3,3,82777.40978136787,532,1020,501
1963,3,3,82777.41978133803,529,1020,503
1964,3,3,82777.42978130821,526,1020,505
1965,3,3,82777.43978127837,524,1020,506
1966,3,3,82777.44978124855,521,1020,506
1967,3,3,82777.45978121871,519,1020,508
1968,3,3,82777.46978118889,517,1020,508
1969,3,3,82777.47978115905,515,1020,507
1970,3,3,82777.48978112923,512,1019,505
1971,3,3,82777.4997810994,513,1020,505
1972,3,3,82777.50978106956,511,1020,505
1973,3,3,82777.51978103974,511,1020,504
1974,3,3,82777.5297810099,511,1020,505
1975,3,3,82777.53978098008,511,1020,506
1976,3,3,82777.54978095024,511,1020,506
1977,3,3,82777.55978092042,511,1020,506
1978,3,3,82777.56978089058,511,1020,508
1979,3,3,82777.57978086076,511,1020,509
1980,3,3,82777.58978083092,508,1020,511
1981,3,3,82777.59978080109,507,1020,514
1982,3,3,82777.60978077126,507,1020,516
1983,3,3,82777.61978074143,508,1020,518
1984,3,3,82777.6297807116,508,1020,521
1985,3,3,82777.63978068177,508,1020,522
1986,3,3,82777.64978065195,509,1020,525
1987,3,3,82777.65978062211,508,1020,527
1988,3,3,82777.66978059227,504,1020,528
1989,3,3,82777.67978056245,505,1020,529
1990,3,3,82777.68978053262,505,1020,530
1991,3,3,82777.6997805028,504,1020,531
1992,3,3,82777.70978047296,502,1020,531
1993,3,3,82777.71978044313,503,1020,531
1994,3,3,82777.7297804133,505,1020,529
1995,3,3,82777.73978038348,513,1020,528
1996,3,3,82777.74978035364,517,1020,527
1997,3,3,82777.7597803238,517,1020,526
1998,3,3,82777.76978029398,514,1020,525
1999,3,3,82777.77978026414,512,1020,524
2000,3,3,82777.78978023432,513,1020,523
2001,3,3,82777.79978020448,512,1020,523
2002,3,3,82777.80978017466,514,1020,524
2003,3,3,82777.81978014483,509,1020,526
2004,3,3,82777.829780115,492,1020,528
2005,3,3,82777.83978008517,481,1020,530
2006,3,3,82777.84978005533,525,1020,531
2007,3,3,82777.85978002551,561,1020,533
2008,3,3,82777.86977999567,578,1020,536
2009,3,3,82777.87977996585,588,1020,539
2010,3,3,82777.88977993601,541,1020,543
2011,3,3,82777.89977990619,499,1020,545
2012,3,3,82777.90977987635,478,1020,546
2013,3,3,82777.91977984652,477,1020,547
2014,3,3,82777.9297798167,477,1020,548
2015,3,3,82777.93977978686,480,1020,549
2016,3,3,82777.94977975704,481,1020,550
2017,3,3,82777.9597797272,482,1019,550
2018,3,3,82777.96977969738,482,1020,551
2019,3,3,82777.97977966754,486,1020,552
2020,3,3,82777.98977963772,486,1020,552
2021,3,3,82777.99977960788,486,1020,553
2022,3,3,82778.00977957805,484,1020,554
2023,3,3,82778.01977954822,486,1019,555
2024,3,3,82778.02977951839,484,1020,553
2025,3,3,82778.03977948856,482,1019,553
2026,3,3,82778.04977945873,483,1020,553
2027,3,3,82778.0597794289,482,1020,553
2028,3,3,82778.06977939907,483,1020,553
2029,3,3,82778.07977936925,488,1020,553
2030,3,3,82778.08977933941,493,1020,555
2031,3,3,82778.09977930957,502,1020,556
2032,3,3,82778.10977927975,515,1020,558
2033,3,3,82778.11977924992,524,1020,560
2034,3,3,82778.1297792201,533,1020,561
2035,3,3,82778.13977919026,539,1020,563
2036,3,3,82778.14977916043,540,1020,563
2037,3,3,82778.1597791306,541,1020,563
2038,3,3,82778.16977910078,537,1020,563
2039,3,3,82778.17977907094,536,1020,562
2040,3,3,82778.1897790411,534,1020,561
2041,3,3,82778.19977901128,530,1020,562
2042,3,3,82778.20977898144,529,1020,562
2043,3,3,82778.21977895162,528,1020,563
2044,3,3,82778.22977892178,527,1020,564
2045,3,3,82778.23977889196,524,1020,565
2046,3,3,82778.24977886213,520,1020,567
2047,3,3,82778.25977883229,516,1020,569
2048,3,3,82778.26977880247,514,1020,573
2049,3,3,82778.27977877263,514,1020,576
2050,3,3,82778.28977874281,513,1020,581
2051,3,3,82778.29977871297,513,1020,586
2052,3,3,82778.30977868315,514,1020,590
2053,3,3,82778.31977865331,512,1020,595
2054,3,3,82778.32977862349,512,1020,600
2055,3,3,82778.33977859365,511,1020,605
2056,3,3,82778.34977856382,512,1020,609
2057,3,3,82778.359778534,508,1020,612
2058,3,3,82778.36977850416,510,1020,616
2059,3,3,82778.37977847434,510,1020,619
2060,3,3,82778.3897784445,511,1020,622
2061,3,3,82778.39977841468,512,1020,624
2062,3,3,82778.40977838484,510,1020,627
2063,3,3,82778.41977835502,510,1020,628
2064,3,3,82778.42977832518,510,1020,630
2065,3,3,82778.43977829535,510,1020,632
2066,3,3,82778.44977826552,511,1020,633
2067,3,3,82778.45977823569,509,1019,634
2068,3,3,82778.46977820586,507,1020,635
2069,3,3,82778.47977817603,505,1020,636
2070,3,3,82778.4897781462,504,1020,638
2071,3,3,82778.49977811637,505,1020,640
2072,3,3,82778.50977808653,503,1020,642
2073,3,3,82778.51977805671,503,1020,644
2074,3,3,82778.52977802687,502,1020,647
2075,3,3,82778.53977799705,501,1020,648
2076,3,3,82778.54977796722,502,1020,650
2077,3,3,82778.5597779374,504,1020,651
2078,3,3,82778.56977790756,509,1020,651
2079,3,3,82778.57977787773,513,1020,650
2080,3,3,82778.5897778479,514,1020,649
2081,3,3,82778.59977781806,514,1020,647
2082,3,3,82778.60977778824,513,1020,645
2083,3,3,82778.6197777584,513,1019,643
2084,3,3,82778.62977772858,512,1020,639
2085,3,3,82778.63977769874,511,1020,635
2086,3,3,82778.64977766892,508,1020,631
2087,3,3,82778.65977763908,504,1020,624
2088,3,3,82778.66977760926,476,1020,617
2089,3,3,82778.67977757943,489,1020,608
2090,3,3,82778.68977754959,529,1020,600
2091,3,3,82778.69977751977,560,1020,590
2092,3,3,82778.70977748993,585,1020,579
2093,3,3,82778.71977746011,555,1020,570
2094,3,3,82778.72977743027,527,1020,558
2095,3,3,82778.73977740045,500,1020,545
2096,3,3,82778.74977737061,483,1019,531
2097,3,3,82778.75977734078,484,1020,517
2098,3,3,82778.76977731095,481,1020,503
2099,3,3,82778.77977728112,483,1020,491
2100,3,3,82778.7897772513,483,1020,481
2101,3,3,82778.79977722146,486,1020,473
2102,3,3,82778.80977719164,486,1020,467
2103,3,3,82778.8197771618,484,1020,462
2104,3,3,82778.82977713198,489,1019,459
2105,3,3,82778.83977710214,488,1020,457
2106,3,3,82778.8497770723,487,1020,456
2107,3,3,82778.85977704248,487,1020,455
2108,3,3,82778.86977701265,487,1020,454
2109,3,3,82778.87977698282,484,1020,450
2110,3,3,82778.88977695299,476,1020,447
2111,3,3,82778.89977692316,483,1020,443
2112,3,3,82778.90977689333,488,1020,438
2113,3,3,82778.9197768635,490,1020,434
2114,3,3,82778.92977683367,500,1020,429
2115,3,3,82778.93977680383,513,1020,426
2116,3,3,82778.94977677401,521,1020,423
2117,3,3,82778.95977674417,532,1020,422
2118,3,3,82778.96977671435,538,1020,421
2119,3,3,82778.97977668451,542,1020,422
2120,3,3,82778.9897766547,540,1020,424
2121,3,3,82778.99977662486,539,1020,427
2122,3,3,82779.00977659502,541,1020,431
2123,3,3,82779.0197765652,536,1020,434
2124,3,3,82779.02977653536,535,1020,436
2125,3,3,82779.03977650554,527,1020,438
2126,3,3,82779.0497764757,527,1020,440
2127,3,3,82779.05977644588,524,1020,440
2128,3,3,82779.06977641604,526,1020,440
2129,3,3,82779.07977638622,522,1020,438
2130,3,3,82779.08977635638,518,1020,434
2131,3,3,82779.09977632655,517,1020,429
2132,3,3,82779.10977629673,510,1020,426
2133,3,3,82779.11977626689,513,1020,422
2134,3,3,82779.12977623707,508,1020,419
2135,3,3,82779.13977620723,509,1020,417
2136,3,3,82779.14977617741,508,1020,417
2137,3,3,82779.15977614757,512,1020,418
2138,3,3,82779.16977611775,513,1020,420
2139,3,3,82779.17977608791,515,1019,424
2140,3,3,82779.18977605808,514,1020,429
2141,3,3,82779.19977602825,504,1020,433
2142,3,3,82779.20977599842,514,1020,441
2143,3,3,82779.2197759686,513,1020,448
2144,3,3,82779.22977593876,511,1020,455
2145,3,3,82779.23977590894,515,1019,462
2146,3,3,82779.2497758791,515,1020,469
2147,3,3,82779.25977584928,507,1020,476
2148,3,3,82779.26977581944,504,1019,481
2149,3,3,82779.2797757896,505,1020,487
2150,3,3,82779.28977575978,504,1020,491
2151,3,3,82779.29977572995,495,1020,494
2152,3,3,82779.30977570012,500,1020,496
2153,3,3,82779.31977567029,501,1020,498
2154,3,3,82779.32977564046,496,1020,498
2155,3,3,82779.33977561063,497,1020,498
2156,3,3,82779.34977558079,502,1020,499
2157,3,3,82779.35977555097,510,1020,498
2158,3,3,82779.36977552113,515,1020,498
2159,3,3,82779.37977549131,511,1020,497
2160,3,3,82779.38977546147,515,1020,497
2161,3,3,82779.39977543165,513,1020,496
2162,3,3,82779.40977540181,509,1020,495
2163,3,3,82779.419775372,520,1020,493
2164,3,3,82779.42977534216,514,1020,490
2165,3,3,82779.43977531232,509,1020,489
2166,3,3,82779.4497752825,506,1020,487
2167,3,3,82779.45977525266,482,1020,488
2168,3,3,82779.46977522284,498,1020,486
2169,3,3,82779.479775193,532,1020,485
2170,3,3,82779.48977516318,555,1020,485
2171,3,3,82779.49977513334,580,1020,484
2172,3,3,82779.50977510352,555,1020,486
2173,3,3,82779.51977507368,516,1020,487
2174,3,3,82779.52977504385,493,1020,485
2175,3,3,82779.53977501403,485,1020,485
2176,3,3,82779.54977498419,481,1020,484
2177,3,3,82779.55977495437,485,1020,484
2178,3,3,82779.56977492453,488,1020,483
2179,3,3,82779.57977489471,487,1020,482
2180,3,3,82779.58977486487,481,1020,481
2181,3,3,82779.59977483503,489,1020,480
2182,3,3,82779.60977480521,488,1020,479
2183,3,3,82779.61977477538,493,1020,479
2184,3,3,82779.62977474555,492,1020,479
2185,3,3,82779.63977471572,488,1020,479
2186,3,3,82779.6497746859,483,1020,479
2187,3,3,82779.65977465606,488,1020,479
2188,3,3,82779.66977462624,484,1020,480
2189,3,3,82779.6797745964,483,1020,483
2190,3,3,82779.68977456656,483,1020,484
2191,3,3,82779.69977453674,492,1020,486
2192,3,3,82779.7097745069,492,1020,488
2193,3,3,82779.71977447708,502,1020,490
2194,3,3,82779.72977444725,513,1020,491
2195,3,3,82779.73977441742,520,1020,492
2196,3,3,82779.74977438759,530,1020,492
2197,3,3,82779.75977435776,536,1020,493
2198,3,3,82779.76977432793,540,1020,492
2199,3,3,82779.77977429809,546,1020,492
2200,3,3,82779.78977426827,546,1020,492
2201,3,3,82779.79977423843,542,1020,491
2202,3,3,82779.80977420861,535,1020,489
2203,3,3,82779.81977417877,533,1020,487
2204,3,3,82779.82977414895,532,1020,487
2205,3,3,82779.83977411911,531,1020,485
2206,3,3,82779.84977408928,528,1019,484
2207,3,3,82779.85977405946,526,1020,485
2208,3,3,82779.86977402962,519,1020,486
2209,3,3,82779.8797739998,518,1020,488
2210,3,3,82779.88977396996,515,1020,490
2211,3,3,82779.89977394014,513,1020,493
2212,3,3,82779.9097739103,512,1020,496
2213,3,3,82779.91977388048,510,1020,499
2214,3,3,82779.92977385064,510,1020,503
2215,3,3,82779.9397738208,506,1020,507
2216,3,3,82779.94977379098,508,1020,509
2217,3,3,82779.95977376115,507,1020,513
2218,3,3,82779.96977373133,508,1020,515
2219,3,3,82779.97977370149,505,1020,517
2220,3,3,82779.98977367167,510,1020,519
2221,3,3,82779.99977364183,507,1020,519
2222,3,3,82780.00977361201,507,1020,521
2223,3,3,82780.01977358217,507,1020,522
2224,3,3,82780.02977355233,508,1020,523
2225,3,3,82780.03977352251,508,1020,523
2226,3,3,82780.04977349268,509,1020,523
2227,3,3,82780.05977346285,511,1020,523
2228,3,3,82780.06977343302,506,1020,524
2229,3,3,82780.0797734032,508,1020,524
2230,3,3,82780.08977337336,507,1020,523
2231,3,3,82780.09977334352,506,1020,522
2232,3,3,82780.1097733137,506,1020,521
2233,3,3,82780.11977328386,504,1020,520
2234,3,3,82780.12977325404,503,1020,519
2235,3,3,82780.1397732242,505,1020,518
2236,3,3,82780.14977319438,502,1020,517
2237,3,3,82780.15977316455,499,1020,516
2238,3,3,82780.16977313472,501,1020,516
2239,3,3,82780.17977310489,500,1020,515
2240,3,3,82780.18977307505,506,1020,514
2241,3,3,82780.19977304523,512,1020,514
2242,3,3,82780.20977301539,514,1020,513
2243,3,3,82780.21977298557,513,1020,513
2244,3,3,82780.22977295573,513,1020,511
2245,3,3,82780.23977292591,511,1020,510
2246,3,3,82780.24977289607,512,1020,508
2247,3,3,82780.25977286625,512,1020,507
2248,3,3,82780.26977283641,511,1020,505
2249,3,3,82780.27977280658,503,1020,504
2250,3,3,82780.28977277676,480,1020,503
2251,3,3,82780.29977274692,495,1020,503
2252,3,3,82780.3097727171,535,1019,502
2253,3,3,82780.31977268726,561,1020,500
2254,3,3,82780.32977265744,582,1020,501
2255,3,3,82780.3397726276,572,1020,502
2256,3,3,82780.34977259778,527,1020,503
2257,3,3,82780.35977256794,491,1020,502
2258,3,3,82780.3697725381,481,1020,502
2259,3,3,82780.37977250828,478,1020,502
2260,3,3,82780.38977247845,479,1020,503
2261,3,3,82780.39977244863,479,1020,503
2262,3,3,82780.40977241879,483,1020,502
2263,3,3,82780.41977238897,482,1020,503
2264,3,3,82780.42977235913,483,1020,502
2265,3,3,82780.4397723293,486,1020,503
2266,3,3,82780.44977229947,483,1020,503
2267,3,3,82780.45977226963,485,1020,502
2268,3,3,82780.46977223981,483,1020,502
2269,3,3,82780.47977220998,487,1020,502
2270,3,3,82780.48977218015,481,1020,500
2271,3,3,82780.49977215032,480,1020,499
2272,3,3,82780.5097721205,480,1019,499
2273,3,3,82780.51977209066,481,1020,497
2274,3,3,82780.52977206082,484,1020,496
2275,3,3,82780.539772031,487,1020,494
2276,3,3,82780.54977200116,496,1019,493
2277,3,3,82780.55977197134,507,1020,490
2278,3,3,82780.5697719415,519,1019,489
2279,3,3,82780.57977191168,529,1020,487
2280,3,3,82780.58977188185,536,1020,486
2281,3,3,82780.59977185202,541,1020,484
2282,3,3,82780.60977182219,541,1020,484
2283,3,3,82780.61977179235,541,1020,484
2284,3,3,82780.62977176253,538,1020,483
2285,3,3,82780.63977173269,536,1020,484
2286,3,3,82780.64977170287,533,1020,484
2287,3,3,82780.65977167303,531,1020,485
2288,3,3,82780.66977164321,529,1020,486
2289,3,3,82780.67977161337,526,1020,486
2290,3,3,82780.68977158354,523,1020,486
2291,3,3,82780.69977155371,519,1020,486
2292,3,3,82780.70977152388,519,1019,486
2293,3,3,82780.71977149406,516,1020,487
2294,3,3,82780.72977146422,516,1020,487
2295,3,3,82780.7397714344,513,1020,487
2296,3,3,82780.74977140456,513,1020,488
2297,3,3,82780.75977137474,512,1019,489
2298,3,3,82780.7697713449,511,1020,491
2299,3,3,82780.77977131506,511,1020,492
2300,3,3,82780.78977128524,510,1019,493
2301,3,3,82780.7997712554,512,1020,494
2302,3,3,82780.80977122558,509,1020,493
2303,3,3,82780.81977119575,509,1020,494
2304,3,3,82780.82977116593,510,1020,494
2305,3,3,82780.83977113609,511,1020,494
2306,3,3,82780.84977110627,511,1020,495
2307,3,3,82780.85977107643,509,1020,495
2308,3,3,82780.8697710466,511,1020,495
2309,3,3,82780.87977101677,508,1020,495
2310,3,3,82780.88977098693,509,1020,494
2311,3,3,82780.89977095711,508,1020,494
2312,3,3,82780.90977092728,509,1020,494
2313,3,3,82780.91977089745,510,1020,493
2314,3,3,82780.92977086762,511,1020,492
2315,3,3,82780.93977083778,507,1020,492
2316,3,3,82780.94977080796,508,1019,491
2317,3,3,82780.95977077812,505,1020,490
2318,3,3,82780.9697707483,504,1020,489
2319,3,3,82780.97977071846,506,1020,488
2320,3,3,82780.98977068864,505,1020,488
2321,3,3,82780.9997706588,500,1020,487
2322,3,3,82781.00977062898,499,1019,486
2323,3,3,82781.01977059914,503,1020,486
2324,3,3,82781.02977056931,510,1020,486
2325,3,3,82781.03977053949,517,1020,485
2326,3,3,82781.04977050965,515,1020,485
2327,3,3,82781.05977047983,516,1020,483
2328,3,3,82781.06977044999,516,1020,482
2329,3,3,82781.07977042017,514,1020,482
2330,3,3,82781.08977039033,513,1020,480
2331,3,3,82781.09977036051,512,1020,479
2332,3,3,82781.10977033067,512,1020,478
2333,3,3,82781.11977030084,508,1020,477
2334,3,3,82781.12977027101,480,1020,476
2335,3,3,82781.13977024118,491,1020,476
2336,3,3,82781.14977021136,536,1020,476
2337,3,3,82781.15977018152,562,1020,475
2338,3,3,82781.1697701517,581,1020,475
2339,3,3,82781.17977012186,569,1020,476
2340,3,3,82781.18977009204,525,1020,477
2341,3,3,82781.1997700622,493,1020,478
2342,3,3,82781.20977003236,480,1020,478
2343,3,3,82781.21977000254,480,1020,477
2344,3,3,82781.2297699727,480,1020,477
2345,3,3,82781.23976994288,482,1020,476
2346,3,3,82781.24976991305,483,1020,474
2347,3,3,82781.25976988323,483,1020,471
2348,3,3,82781.26976985339,484,1019,469
2349,3,3,82781.27976982355,483,1020,467
2350,3,3,82781.28976979373,486,1020,466
2351,3,3,82781.2997697639,487,1020,463
2352,3,3,82781.30976973407,487,1020,460
2353,3,3,82781.31976970423,484,1020,455
2354,3,3,82781.32976967441,483,1020,453
2355,3,3,82781.33976964458,481,1020,450
2356,3,3,82781.34976961475,481,1020,445
2357,3,3,82781.35976958492,481,1020,440
2358,3,3,82781.36976955508,485,1020,435
2359,3,3,82781.37976952526,489,1020,430
2360,3,3,82781.38976949542,496,1020,425
2361,3,3,82781.3997694656,505,1020,421
2362,3,3,82781.40976943576,520,1020,416
2363,3,3,82781.41976940594,528,1020,413
2364,3,3,82781.4297693761,536,1020,412
2365,3,3,82781.43976934628,542,1020,409
2366,3,3,82781.44976931644,543,1020,408
2367,3,3,82781.45976928661,541,1020,407
2368,3,3,82781.46976925679,539,1020,406
2369,3,3,82781.47976922695,537,1020,405
2370,3,3,82781.48976919713,535,1020,403
2371,3,3,82781.49976916729,531,1020,402
2372,3,3,82781.50976913747,527,1020,403
2373,3,3,82781.51976910763,524,1020,403
2374,3,3,82781.5297690778,524,1020,403
2375,3,3,82781.53976904797,520,1020,403
2376,3,3,82781.54976901814,516,1020,404
2377,3,3,82781.55976898831,515,1020,405
2378,3,3,82781.56976895848,515,1020,406
2379,3,3,82781.57976892866,513,1020,407
2380,3,3,82781.58976889882,512,1020,408
2381,3,3,82781.599768869,511,1020,408
2382,3,3,82781.60976883916,511,1020,408
2383,3,3,82781.61976880932,510,1019,408
2384,3,3,82781.6297687795,511,1020,408
2385,3,3,82781.63976874966,510,1020,408
2386,3,3,82781.64976871984,507,1020,408
2387,3,3,82781.65976869,510,1020,408
2388,3,3,82781.66976866018,511,1020,408
2389,3,3,82781.67976863035,511,1019,408
2390,3,3,82781.68976860052,508,1020,409
2391,3,3,82781.69976857069,508,1019,408
2392,3,3,82781.70976854085,511,1020,408
2393,3,3,82781.71976851103,510,1020,408
2394,3,3,82781.7297684812,510,1020,408
2395,3,3,82781.73976845137,510,1020,408
2396,3,3,82781.74976842153,510,1020,409
2397,3,3,82781.75976839171,507,1020,408
2398,3,3,82781.76976836188,504,1020,407
2399,3,3,82781.77976833204,507,1020,407
2400,3,3,82781.78976830222,507,1020,407
2401,3,3,82781.79976827238,500,1020,406
2402,3,3,82781.80976824256,500,1020,405
2403,3,3,82781.81976821272,499,1020,406
2404,3,3,82781.8297681829,506,1020,405
2405,3,3,82781.83976815306,512,1020,405
2406,3,3,82781.84976812324,518,1020,405
2407,3,3,82781.8597680934,513,1020,406
2408,3,3,82781.86976806357,512,1020,406
2409,3,3,82781.87976803374,512,1020,404
2410,3,3,82781.88976800391,512,1020,406
2411,3,3,82781.89976797409,512,1020,406
2412,3,3,82781.90976794425,512,1020,408
2413,3,3,82781.91976791443,507,1020,407
2414,3,3,82781.92976788459,487,1020,409
2415,3,3,82781.93976785477,485,1020,410
2416,3,3,82781.94976782493,528,1020,413
2417,3,3,82781.9597677951,559,1020,414
2418,3,3,82781.96976776527,575,1020,415
2419,3,3,82781.97976773544,566,1020,418
2420,3,3,82781.98976770561,532,1020,420
2421,3,3,82781.99976767578,503,1020,422
2422,3,3,82782.00976764596,484,1020,423
2423,3,3,82782.01976761612,484,1020,423
2424,3,3,82782.02976758628,483,1020,424
2425,3,3,82782.03976755646,483,1020,424
2426,3,3,82782.04976752662,484,1020,425
2427,3,3,82782.0597674968,484,1020,426
2428,3,3,82782.06976746696,485,1019,427
2429,3,3,82782.07976743714,486,1020,429
2430,3,3,82782.0897674073,486,1020,430
2431,3,3,82782.09976737748,486,1020,431
2432,3,3,82782.10976734765,487,1020,432
2433,3,3,82782.11976731781,486,1020,433
2434,3,3,82782.12976728799,484,1020,433
2435,3,3,82782.13976725815,482,1020,433
2436,3,3,82782.14976722833,482,1020,433
2437,3,3,82782.1597671985,487,1020,432
2438,3,3,82782.16976716867,486,1020,431
2439,3,3,82782.17976713883,492,1020,430
2440,3,3,82782.18976710901,497,1020,427
2441,3,3,82782.19976707918,509,1020,427
2442,3,3,82782.20976704934,519,1020,425
2443,3,3,82782.21976701952,528,1020,423
2444,3,3,82782.22976698968,536,1020,421
2445,3,3,82782.23976695986,538,1020,420
2446,3,3,82782.24976693002,542,1020,420
2447,3,3,82782.2597669002,540,1020,419
2448,3,3,82782.26976687036,535,1020,419
2449,3,3,82782.27976684054,533,1020,419
2450,3,3,82782.2897668107,531,1020,419
2451,3,3,82782.29976678087,529,1020,419
2452,3,3,82782.30976675104,526,1020,420
2453,3,3,82782.31976672121,526,1020,420
2454,3,3,82782.32976669139,523,1020,423
2455,3,3,82782.33976666155,519,1020,423
2456,3,3,82782.34976663173,516,1020,423
2457,3,3,82782.35976660189,517,1020,424
2458,3,3,82782.36976657205,515,1020,425
2459,3,3,82782.37976654223,512,1020,426
2460,3,3,82782.3897665124,512,1020,427
2461,3,3,82782.39976648257,512,1020,429
2462,3,3,82782.40976645274,511,1020,431
2463,3,3,82782.41976642291,510,1020,433
2464,3,3,82782.42976639308,511,1020,434
2465,3,3,82782.43976636326,511,1020,436
2466,3,3,82782.44976633342,510,1020,438
2467,3,3,82782.45976630358,511,1020,440
2468,3,3,82782.46976627376,510,1020,441
2469,3,3,82782.47976624392,510,1020,443
2470,3,3,82782.4897662141,509,1020,444
2471,3,3,82782.49976618426,509,1020,445
2472,3,3,82782.50976615444,509,1019,446
2473,3,3,82782.5197661246,510,1020,447
2474,3,3,82782.52976609478,508,1020,448
2475,3,3,82782.53976606495,510,1020,449
2476,3,3,82782.54976603511,509,1020,449
2477,3,3,82782.55976600529,511,1020,450
2478,3,3,82782.56976597545,504,1020,450
2479,3,3,82782.57976594563,503,1020,452
2480,3,3,82782.58976591579,507,1020,451
2481,3,3,82782.59976588597,509,1020,453
2482,3,3,82782.60976585613,501,1020,452
2483,3,3,82782.6197658263,502,1020,453
2484,3,3,82782.62976579648,502,1020,455
2485,3,3,82782.63976576664,506,1020,454
2486,3,3,82782.64976573682,517,1020,456
2487,3,3,82782.65976570698,515,1020,457
2488,3,3,82782.66976567716,513,1020,458
2489,3,3,82782.67976564732,513,1020,460
2490,3,3,82782.6897656175,512,1020,460
2491,3,3,82782.69976558766,511,1020,461
2492,3,3,82782.70976555783,512,1020,463
2493,3,3,82782.719765528,510,1020,463
2494,3,3,82782.72976549817,503,1020,463
2495,3,3,82782.73976546834,477,1020,464
2496,3,3,82782.74976543851,508,1020,465
2497,3,3,82782.75976540869,552,1020,464
2498,3,3,82782.76976537885,570,1020,463
2499,3,3,82782.77976534903,590,1020,464
2500,3,3,82782.78976531919,556,1020,464
2501,3,3,82782.79976528935,516,1020,463
2502,3,3,82782.80976525953,487,1020,463
2503,3,3,82782.8197652297,480,1020,461
2504,3,3,82782.82976519987,480,1020,460
2505,3,3,82782.83976517004,479,1020,460
2506,3,3,82782.84976514021,482,1020,459
2507,3,3,82782.85976511038,483,1020,458
2508,3,3,82782.86976508054,484,1020,457
2509,3,3,82782.87976505072,483,1020,458
2510,3,3,82782.88976502088,485,1020,459
2511,3,3,82782.89976499106,487,1020,459
2512,3,3,82782.90976496122,487,1020,459
2513,3,3,82782.9197649314,486,1020,459
2514,3,3,82782.92976490156,483,1020,459
2515,3,3,82782.93976487174,481,1020,459
2516,3,3,82782.9497648419,483,1020,459
2517,3,3,82782.95976481207,483,1020,458
2518,3,3,82782.96976478225,484,1020,458
2519,3,3,82782.97976475241,487,1020,456
2520,3,3,82782.98976472259,491,1020,456
2521,3,3,82782.99976469275,500,1020,455
2522,3,3,82783.00976466293,511,1020,453
2523,3,3,82783.01976463309,522,1020,451
2524,3,3,82783.02976460327,530,1020,449
2525,3,3,82783.03976457343,537,1020,448
2526,3,3,82783.0497645436,542,1020,448
2527,3,3,82783.05976451378,541,1020,448
2528,3,3,82783.06976448394,540,1020,447
2529,3,3,82783.07976445412,537,1020,447
2530,3,3,82783.08976442428,535,1020,449
2531,3,3,82783.09976439446,534,1020,449
2532,3,3,82783.10976436462,529,1020,449
2533,3,3,82783.11976433478,527,1020,451
2534,3,3,82783.12976430496,524,1020,454
2535,3,3,82783.13976427513,520,1020,455
2536,3,3,82783.1497642453,521,1020,456
2537,3,3,82783.15976421547,518,1020,457
2538,3,3,82783.16976418564,518,1020,457
2539,3,3,82783.17976415581,513,1020,459
2540,3,3,82783.18976412599,513,1020,461
2541,3,3,82783.19976409615,511,1020,462
2542,3,3,82783.20976406631,510,1020,463
2543,3,3,82783.21976403649,510,1020,465
2544,3,3,82783.22976400665,510,1020,467
2545,3,3,82783.23976397683,510,1020,469
2546,3,3,82783.249763947,509,1020,470
2547,3,3,82783.25976391717,509,1020,471
2548,3,3,82783.26976388734,509,1020,472
2549,3,3,82783.27976385751,509,1020,472
2550,3,3,82783.28976382768,511,1020,473
2551,3,3,82783.29976379784,511,1020,473
2552,3,3,82783.30976376802,511,1020,474
2553,3,3,82783.31976373818,509,1020,474
2554,3,3,82783.32976370836,510,1020,474
2555,3,3,82783.33976367852,512,1020,475
2556,3,3,82783.3497636487,505,1020,476
2557,3,3,82783.35976361886,503,1020,476
2558,3,3,82783.36976358904,506,1020,478
2559,3,3,82783.3797635592,505,1020,477
2560,3,3,82783.38976352937,499,1020,478
2561,3,3,82783.39976349955,499,1020,479
2562,3,3,82783.40976346971,500,1020,479
2563,3,3,82783.41976343989,504,1020,479
2564,3,3,82783.42976341005,515,1020,479
2565,3,3,82783.43976338023,515,1020,478
2566,3,3,82783.44976335039,514,1020,478
2567,3,3,82783.45976332056,513,1019,478
2568,3,3,82783.46976329073,513,1020,478
2569,3,3,82783.4797632609,513,1020,477
2570,3,3,82783.48976323107,511,1020,477
2571,3,3,82783.49976320124,511,1020,478
2572,3,3,82783.50976317142,503,1020,477
2573,3,3,82783.51976314158,478,1020,477
2574,3,3,82783.52976311176,497,1020,477
2575,3,3,82783.53976308192,541,1020,477
2576,3,3,82783.54976305208,563,1020,478
2577,3,3,82783.55976302226,585,1020,478
2578,3,3,82783.56976299243,566,1020,479
2579,3,3,82783.5797629626,524,1020,481
2580,3,3,82783.58976293277,490,1020,481
2581,3,3,82783.59976290294,481,1020,481
2582,3,3,82783.60976287311,480,1020,481
2583,3,3,82783.61976284329,481,1020,482
2584,3,3,82783.62976281345,481,1020,481
2585,3,3,82783.63976278361,482,1020,481
2586,3,3,82783.64976275379,484,1020,481
2587,3,3,82783.65976272395,486,1019,480
2588,3,3,82783.66976269413,487,1019,481
2589,3,3,82783.6797626643,485,1020,481
2590,3,3,82783.68976263447,487,1020,480
2591,3,3,82783.69976260464,485,1019,480
2592,3,3,82783.7097625748,486,1020,479
2593,3,3,82783.71976254498,481,1020,479
2594,3,3,82783.72976251514,481,1020,478
2595,3,3,82783.73976248532,482,1020,477
2596,3,3,82783.74976245548,484,1020,477
2597,3,3,82783.75976242566,487,1020,476
2598,3,3,82783.76976239582,491,1020,476
2599,3,3,82783.779762366,498,1020,475
2600,3,3,82783.78976233616,508,1020,473
2601,3,3,82783.79976230633,519,1020,471
2602,3,3,82783.8097622765,529,1020,470
2603,3,3,82783.81976224667,537,1020,469
2604,3,3,82783.82976221685,541,1020,467
2605,3,3,82783.83976218701,542,1020,467
2606,3,3,82783.84976215719,540,1020,466
2607,3,3,82783.85976212735,541,1020,467
2608,3,3,82783.86976209753,538,1020,467
2609,3,3,82783.87976206769,532,1020,466
2610,3,3,82783.88976203786,530,1020,467
2611,3,3,82783.89976200803,525,1020,466
2612,3,3,82783.9097619782,524,1020,468
2613,3,3,82783.91976194837,520,1020,468
2614,3,3,82783.92976191854,516,1020,468
2615,3,3,82783.93976188872,518,1019,468
2616,3,3,82783.94976185888,518,1019,469
2617,3,3,82783.95976182904,517,1020,470
2618,3,3,82783.96976179922,512,1020,472
2619,3,3,82783.97976176938,514,1019,475
2620,3,3,82783.98976173956,512,1020,477
2621,3,3,82783.99976170973,510,1020,479
2622,3,3,82784.0097616799,512,1020,482
2623,3,3,82784.01976165007,513,1020,484
2624,3,3,82784.02976162024,511,1020,484
2625,3,3,82784.03976159041,512,1020,486
2626,3,3,82784.04976156057,510,1020,486
2627,3,3,82784.05976153075,510,1020,487
2628,3,3,82784.06976150091,510,1020,487
2629,3,3,82784.07976147109,512,1020,488
2630,3,3,82784.08976144125,509,1020,488
2631,3,3,82784.09976141143,509,1020,488
2632,3,3,82784.1097613816,508,1020,488
2633,3,3,82784.11976135177,509,1020,487
2634,3,3,82784.12976132194,509,1020,487
2635,3,3,82784.1397612921,508,1020,487
2636,3,3,82784.14976126228,506,1020,486
2637,3,3,82784.15976123244,507,1020,485
2638,3,3,82784.16976120262,504,1020,483
2639,3,3,82784.17976117278,500,1020,481
2640,3,3,82784.18976114296,505,1020,480
2641,3,3,82784.19976111312,512,1020,479
2642,3,3,82784.20976108329,513,1020,478
2643,3,3,82784.21976105346,515,1020,477
2644,3,3,82784.22976102363,515,1020,476
2645,3,3,82784.2397609938,512,1020,476
2646,3,3,82784.24976096397,514,1020,478
2647,3,3,82784.25976093415,511,1020,478
2648,3,3,82784.26976090431,511,1019,479
2649,3,3,82784.27976087449,506,1020,481
2650,3,3,82784.28976084465,488,1020,481
2651,3,3,82784.29976081481,479,1020,480
2652,3,3,82784.30976078499,519,1020,481
2653,3,3,82784.31976075516,550,1020,481
2654,3,3,82784.32976072533,572,1020,480
2655,3,3,82784.3397606955,574,1020,481
2656,3,3,82784.34976066567,535,1020,480
2657,3,3,82784.35976063584,502,1020,478
2658,3,3,82784.36976060602,484,1020,478
2659,3,3,82784.37976057618,483,1020,476
2660,3,3,82784.38976054634,483,1020,474
2661,3,3,82784.39976051652,484,1020,473
2662,3,3,82784.40976048668,484,1020,471
2663,3,3,82784.41976045686,485,1020,468
2664,3,3,82784.42976042703,486,1020,467
2665,3,3,82784.4397603972,487,1020,466
2666,3,3,82784.44976036737,487,1020,464
2667,3,3,82784.45976033754,486,1020,463
2668,3,3,82784.46976030771,487,1020,463
2669,3,3,82784.47976027787,484,1020,461
2670,3,3,82784.48976024805,483,1020,460
2671,3,3,82784.49976021821,480,1020,457
2672,3,3,82784.50976018839,478,1019,455
2673,3,3,82784.51976015855,479,1020,451
2674,3,3,82784.52976012873,480,1020,448
2675,3,3,82784.5397600989,486,1020,444
2676,3,3,82784.54976006906,491,1020,438
2677,3,3,82784.55976003924,502,1020,435
2678,3,3,82784.5697600094,515,1020,430
2679,3,3,82784.57975997958,529,1020,426
2680,3,3,82784.58975994974,534,1020,422
2681,3,3,82784.59975991992,534,1020,418
2682,3,3,82784.60975989008,543,1020,415
2683,3,3,82784.61975986026,547,1020,413
2684,3,3,82784.62975983042,540,1020,410
2685,3,3,82784.63975980059,536,1020,408
2686,3,3,82784.64975977076,534,1020,406
2687,3,3,82784.65975974093,531,1020,405
2688,3,3,82784.6697597111,527,1020,406
2689,3,3,82784.67975968127,524,1020,406
2690,3,3,82784.68975965145,524,1020,406
2691,3,3,82784.69975962161,521,1020,408
2692,3,3,82784.70975959179,519,1020,410
2693,3,3,82784.71975956195,516,1020,411
2694,3,3,82784.72975953211,513,1020,415
2695,3,3,82784.73975950229,512,1020,418
2696,3,3,82784.74975947246,514,1020,422
2697,3,3,82784.75975944263,513,1020,425
2698,3,3,82784.7697594128,513,1020,430
2699,3,3,82784.77975938297,512,1020,434
2700,3,3,82784.78975935314,513,1020,439
2701,3,3,82784.7997593233,513,1020,442
2702,3,3,82784.80975929348,512,1019,446
2703,3,3,82784.81975926364,512,1020,450
2704,3,3,82784.82975923382,508,1020,453
2705,3,3,82784.83975920398,509,1020,457
2706,3,3,82784.84975917416,511,1020,460
2707,3,3,82784.85975914432,508,1020,464
2708,3,3,82784.8697591145,507,1020,468
2709,3,3,82784.87975908467,508,1020,471
2710,3,3,82784.88975905483,505,1019,474
2711,3,3,82784.89975902501,499,1020,477
2712,3,3,82784.90975899517,499,1020,480
2713,3,3,82784.91975896535,501,1020,482
2714,3,3,82784.92975893551,512,1020,483
2715,3,3,82784.93975890569,512,1020,484
2716,3,3,82784.94975887585,516,1020,486
2717,3,3,82784.95975884603,512,1020,487
2718,3,3,82784.9697588162,512,1020,487
2719,3,3,82784.97975878636,512,1020,490
2720,3,3,82784.98975875654,511,1020,491
2721,3,3,82784.9997587267,512,1020,494
2722,3,3,82785.00975869688,505,1020,495
2723,3,3,82785.01975866704,497,1020,498
2724,3,3,82785.02975863722,481,1020,500
2725,3,3,82785.03975860738,515,1020,502
2726,3,3,82785.04975857754,548,1020,505
2727,3,3,82785.05975854772,566,1020,507
2728,3,3,82785.06975851789,577,1020,510
2729,3,3,82785.07975848806,542,1020,511
2730,3,3,82785.08975845823,505,1020,514
2731,3,3,82785.0997584284,485,1020,515
2732,3,3,82785.10975839857,481,1020,518
2733,3,3,82785.11975836875,484,1019,519
2734,3,3,82785.12975833891,480,1020,523
2735,3,3,82785.13975830907,482,1020,526
2736,3,3,82785.14975827925,485,1019,529
2737,3,3,82785.15975824941,488,1020,532
2738,3,3,82785.16975821959,486,1019,536
2739,3,3,82785.17975818976,483,1020,540
2740,3,3,82785.18975815993,488,1020,545
2741,3,3,82785.1997581301,487,1020,550
2742,3,3,82785.20975810027,488,1020,555
2743,3,3,82785.21975807044,483,1020,560
2744,3,3,82785.2297580406,484,1020,566
2745,3,3,82785.23975801078,483,1020,571
2746,3,3,82785.24975798094,482,1020,575
2747,3,3,82785.25975795112,486,1020,580
2748,3,3,82785.26975792128,488,1020,583
2749,3,3,82785.27975789146,497,1020,585
2750,3,3,82785.28975786162,504,1020,588
2751,3,3,82785.29975783179,515,1020,590
2752,3,3,82785.30975780197,523,1020,591
2753,3,3,82785.31975777213,534,1020,592
2754,3,3,82785.3297577423,538,1020,593
2755,3,3,82785.33975771247,539,1020,593
2756,3,3,82785.34975768265,539,1020,594
2757,3,3,82785.35975765281,537,1020,594
2758,3,3,82785.36975762299,535,1020,593
2759,3,3,82785.37975759315,532,1020,593
2760,3,3,82785.38975756332,529,1020,591
2761,3,3,82785.3997575335,525,1020,590
2762,3,3,82785.40975750366,523,1020,589
2763,3,3,82785.41975747384,522,1020,588
2764,3,3,82785.429757444,518,1020,584
2765,3,3,82785.43975741418,517,1020,580
2766,3,3,82785.44975738434,513,1020,577
2767,3,3,82785.45975735452,513,1020,575
2768,3,3,82785.46975732468,514,1020,573
2769,3,3,82785.47975729484,510,1020,571
2770,3,3,82785.48975726502,511,1020,572
2771,3,3,82785.49975723519,511,1020,572
2772,3,3,82785.50975720536,511,1020,575
2773,3,3,82785.51975717553,510,1020,576
2774,3,3,82785.5297571457,510,1020,580
2775,3,3,82785.53975711587,509,1020,584
2776,3,3,82785.54975708605,510,1020,587
2777,3,3,82785.55975705621,512,1020,591
2778,3,3,82785.56975702637,509,1020,595
2779,3,3,82785.57975699655,508,1020,597
2780,3,3,82785.58975696671,505,1020,600
2781,3,3,82785.59975693689,504,1020,603
2782,3,3,82785.60975690706,506,1020,607
2783,3,3,82785.61975687723,504,1020,610
2784,3,3,82785.6297568474,504,1020,614
2785,3,3,82785.63975681756,504,1020,618
2786,3,3,82785.64975678774,508,1020,621
2787,3,3,82785.6597567579,514,1020,625
2788,3,3,82785.66975672808,514,1020,630
2789,3,3,82785.67975669824,518,1019,634
2790,3,3,82785.68975666842,515,1020,638
2791,3,3,82785.69975663858,517,1020,642
2792,3,3,82785.70975660876,517,1020,646
2793,3,3,82785.71975657892,515,1020,649
2794,3,3,82785.72975654909,513,1020,652
2795,3,3,82785.73975651927,509,1020,654
2796,3,3,82785.74975648943,492,1020,655
2797,3,3,82785.7597564596,474,1020,655
2798,3,3,82785.76975642977,513,1020,655
2799,3,3,82785.77975639995,550,1020,655
2800,3,3,82785.78975637011,570,1020,654
2801,3,3,82785.79975634029,583,1020,654
2802,3,3,82785.80975631045,544,1020,653
2803,3,3,82785.81975628062,507,1020,650
2804,3,3,82785.8297562508,488,1020,648
2805,3,3,82785.83975622096,485,1020,645
2806,3,3,82785.84975619114,485,1020,642
2807,3,3,82785.8597561613,482,1020,639
2808,3,3,82785.86975613148,483,1020,635
2809,3,3,82785.87975610164,485,1020,632
2810,3,3,82785.8897560718,486,1020,629
2811,3,3,82785.89975604198,484,1020,627
2812,3,3,82785.90975601214,486,1020,626
2813,3,3,82785.91975598232,486,1020,626
2814,3,3,82785.92975595249,487,1020,625
2815,3,3,82785.93975592266,484,1020,624
2816,3,3,82785.94975589283,482,1020,624
2817,3,3,82785.959755863,481,1020,623
2818,3,3,82785.96975583317,479,1020,624
2819,3,3,82785.97975580333,481,1020,623
2820,3,3,82785.98975577351,481,1020,622
2821,3,3,82785.99975574367,487,1020,622
2822,3,3,82786.00975571385,496,1020,621
2823,3,3,82786.01975568401,506,1020,620
2824,3,3,82786.02975565419,518,1020,620
2825,3,3,82786.03975562436,525,1020,619
2826,3,3,82786.04975559453,535,1020,617
2827,3,3,82786.0597555647,541,1020,617
2828,3,3,82786.06975553486,544,1020,618
2829,3,3,82786.07975550504,542,1020,619
2830,3,3,82786.0897554752,539,1020,619
2831,3,3,82786.09975544538,536,1020,620
2832,3,3,82786.10975541554,535,1020,619
2833,3,3,82786.11975538572,532,1020,618
2834,3,3,82786.12975535588,528,1020,617
2835,3,3,82786.13975532605,525,1020,616
2836,3,3,82786.14975529622,521,1020,615
2837,3,3,82786.15975526639,520,1020,614
2838,3,3,82786.16975523657,518,1020,612
2839,3,3,82786.17975520673,518,1020,611
2840,3,3,82786.1897551769,517,1020,609
2841,3,3,82786.19975514707,514,1020,606
2842,3,3,82786.20975511725,513,1020,606
2843,3,3,82786.21975508741,513,1020,604
2844,3,3,82786.22975505757,511,1020,601
2845,3,3,82786.23975502775,513,1020,598
2846,3,3,82786.24975499792,513,1020,594
2847,3,3,82786.2597549681,514,1019,589
2848,3,3,82786.26975493826,504,1020,584
2849,3,3,82786.27975490844,499,1020,579
2850,3,3,82786.2897548786,508,1019,574
2851,3,3,82786.29975484878,508,1020,568
2852,3,3,82786.30975481894,513,1020,561
2853,3,3,82786.3197547891,507,1020,555
2854,3,3,82786.32975475928,504,1020,550
2855,3,3,82786.33975472944,506,1019,543
2856,3,3,82786.34975469962,512,1020,536
2857,3,3,82786.35975466979,514,1020,532
2858,3,3,82786.36975463996,513,1020,526
2859,3,3,82786.37975461013,515,1019,521
2860,3,3,82786.3897545803,511,1020,515
2861,3,3,82786.39975455047,510,1020,510
2862,3,3,82786.40975452063,511,1020,504
2863,3,3,82786.41975449081,508,1020,498
2864,3,3,82786.42975446097,505,1020,493
2865,3,3,82786.43975443115,485,1020,487
2866,3,3,82786.44975440131,483,1020,482
2867,3,3,82786.45975437149,522,1020,476
2868,3,3,82786.46975434166,549,1020,472
2869,3,3,82786.47975431182,560,1020,466
2870,3,3,82786.489754282,559,1020,462
2871,3,3,82786.49975425216,530,1020,456
2872,3,3,82786.50975422234,503,1020,452
2873,3,3,82786.5197541925,486,1020,446
2874,3,3,82786.52975416268,487,1020,440
2875,3,3,82786.53975413284,487,1020,433
2876,3,3,82786.54975410302,480,1020,427
2877,3,3,82786.55975407318,487,1020,420
2878,3,3,82786.56975404335,492,1020,414
2879,3,3,82786.57975401352,486,1020,408
2880,3,3,82786.58975398369,492,1020,404
2881,3,3,82786.59975395387,491,1020,400
2882,3,3,82786.60975392403,492,1020,397
2883,3,3,82786.6197538942,491,1020,395
2884,3,3,82786.62975386437,488,1020,392
2885,3,3,82786.63975383455,488,1020,390
2886,3,3,82786.64975380471,483,1020,390
2887,3,3,82786.65975377487,480,1020,389
2888,3,3,82786.66975374505,492,1020,389
2889,3,3,82786.67975371522,491,1020,386
2890,3,3,82786.6897536854,496,1020,384
2891,3,3,82786.69975365556,505,1020,381
2892,3,3,82786.70975362574,511,1020,377
2893,3,3,82786.7197535959,519,1020,374
2894,3,3,82786.72975356606,528,1020,370
2895,3,3,82786.73975353624,537,1020,365
2896,3,3,82786.7497535064,536,1020,360
2897,3,3,82786.75975347658,538,1020,356
2898,3,3,82786.76975344674,536,1020,353
2899,3,3,82786.77975341692,532,1020,352
2900,3,3,82786.78975338709,532,1020,348
2901,3,3,82786.79975335726,528,1020,348
2902,3,3,82786.80975332743,526,1020,346
2903,3,3,82786.81975329759,525,1020,346
2904,3,3,82786.82975326777,522,1020,345
2905,3,3,82786.83975323793,517,1020,346
2906,3,3,82786.84975320811,519,1020,347
2907,3,3,82786.85975317827,517,1020,348
2908,3,3,82786.86975314845,512,1020,348
2909,3,3,82786.87975311861,513,1020,349
2910,3,3,82786.88975308879,514,1020,350
2911,3,3,82786.89975305895,508,1020,352
2912,3,3,82786.90975302912,510,1020,352
2913,3,3,82786.9197529993,511,1020,353
2914,3,3,82786.92975296946,508,1020,356
2915,3,3,82786.93975293964,510,1020,359
2916,3,3,82786.9497529098,509,1020,361
2917,3,3,82786.95975287998,508,1020,363
2918,3,3,82786.96975285014,507,1020,364
2919,3,3,82786.9797528203,507,1020,366
2920,3,3,82786.98975279048,507,1020,368
2921,3,3,82786.99975276065,509,1020,369
2922,3,3,82787.00975273082,506,1020,371
2923,3,3,82787.01975270099,505,1019,373
2924,3,3,82787.02975267117,500,1020,374
2925,3,3,82787.03975264133,506,1020,375
2926,3,3,82787.0497526115,512,1020,376
2927,3,3,82787.05975258167,514,1020,377
2928,3,3,82787.06975255183,514,1020,379
2929,3,3,82787.07975252201,511,1020,379
2930,3,3,82787.08975249217,513,1020,379
2931,3,3,82787.09975246235,512,1020,380
2932,3,3,82787.10975243252,512,1020,381
2933,3,3,82787.1197524027,512,1020,380
2934,3,3,82787.12975237286,505,1020,380
2935,3,3,82787.13975234304,489,1020,380
2936,3,3,82787.1497523132,489,1020,380
2937,3,3,82787.15975228336,528,1020,380
2938,3,3,82787.16975225354,553,1019,379
2939,3,3,82787.1797522237,560,1020,380
2940,3,3,82787.18975219388,564,1020,381
2941,3,3,82787.19975216404,532,1020,382
2942,3,3,82787.20975213422,498,1020,380
2943,3,3,82787.21975210439,487,1020,380
2944,3,3,82787.22975207455,484,1020,380
2945,3,3,82787.23975204473,486,1020,381
2946,3,3,82787.24975201489,487,1019,380
2947,3,3,82787.25975198507,480,1020,379
2948,3,3,82787.26975195523,490,1020,379
2949,3,3,82787.27975192541,489,1020,378
2950,3,3,82787.28975189557,489,1020,379
2951,3,3,82787.29975186575,485,1020,380
2952,3,3,82787.30975183591,492,1020,379
2953,3,3,82787.31975180608,490,1020,378
2954,3,3,82787.32975177625,490,1020,379
2955,3,3,82787.33975174642,480,1020,378
2956,3,3,82787.3497517166,486,1020,379
2957,3,3,82787.35975168676,485,1020,379
2958,3,3,82787.36975165694,489,1020,379
2959,3,3,82787.3797516271,485,1020,377
2960,3,3,82787.38975159728,491,1020,377
2961,3,3,82787.39975156744,499,1020,376
2962,3,3,82787.4097515376,510,1020,376
2963,3,3,82787.41975150778,514,1020,375
2964,3,3,82787.42975147795,526,1020,375
2965,3,3,82787.43975144812,535,1020,375
2966,3,3,82787.44975141829,533,1020,376
2967,3,3,82787.45975138847,536,1020,376
2968,3,3,82787.46975135863,535,1020,377
2969,3,3,82787.4797513288,532,1020,379
2970,3,3,82787.48975129897,534,1020,380
2971,3,3,82787.49975126913,528,1020,382
2972,3,3,82787.50975123931,529,1020,382
2973,3,3,82787.51975120947,527,1020,386
2974,3,3,82787.52975117965,520,1020,388
2975,3,3,82787.53975114982,520,1020,390
2976,3,3,82787.54975112,519,1020,391
2977,3,3,82787.55975109016,517,1020,394
2978,3,3,82787.56975106032,512,1020,398
2979,3,3,82787.5797510305,513,1020,399
2980,3,3,82787.58975100066,515,1020,402
2981,3,3,82787.59975097084,509,1020,406
2982,3,3,82787.609750941,511,1020,409
2983,3,3,82787.61975091118,504,1020,411
2984,3,3,82787.62975088134,512,1020,414
2985,3,3,82787.63975085152,509,1020,417
2986,3,3,82787.64975082169,511,1020,419
2987,3,3,82787.65975079185,507,1020,423
2988,3,3,82787.66975076203,507,1020,424
2989,3,3,82787.67975073219,507,1020,428
2990,3,3,82787.68975070237,509,1020,430
2991,3,3,82787.69975067253,507,1020,432
2992,3,3,82787.70975064271,502,1020,435
2993,3,3,82787.71975061287,504,1020,436
2994,3,3,82787.72975058305,511,1020,439
2995,3,3,82787.73975055321,513,1020,440
2996,3,3,82787.74975052338,513,1020,440
2997,3,3,82787.75975049355,511,1020,444
2998,3,3,82787.76975046372,514,1020,444
2999,3,3,82787.7797504339,513,1020,446
3000,3,3,82787.78975040406,512,1020,446
3001,3,3,82787.79975037424,508,1020,447
3002,3,3,82787.8097503444,508,1020,449
3003,3,3,82787.81975031456,487,1020,449
3004,3,3,82787.82975028474,483,1020,451
3005,3,3,82787.8397502549,531,1020,452
3006,3,3,82787.84975022508,559,1020,452
3007,3,3,82787.85975019525,573,1020,455
3008,3,3,82787.86975016542,574,1020,457
3009,3,3,82787.87975013559,534,1020,459
3010,3,3,82787.88975010577,496,1020,460
3011,3,3,82787.89975007593,479,1020,460
3012,3,3,82787.90975004609,480,1020,461
3013,3,3,82787.91975001627,481,1020,462
3014,3,3,82787.92974998643,485,1020,462
3015,3,3,82787.93974995661,481,1020,464
3016,3,3,82787.94974992677,486,1020,463
3017,3,3,82787.95974989695,486,1020,465
3018,3,3,82787.96974986712,487,1020,466
3019,3,3,82787.9797498373,485,1020,466
3020,3,3,82787.98974980746,486,1020,466
3021,3,3,82787.99974977762,487,1020,466
3022,3,3,82788.0097497478,484,1020,466
3023,3,3,82788.01974971796,483,1020,465
3024,3,3,82788.02974968814,483,1020,465
3025,3,3,82788.0397496583,483,1020,464
3026,3,3,82788.04974962848,483,1020,464
3027,3,3,82788.05974959864,486,1020,464
3028,3,3,82788.06974956881,492,1020,464
3029,3,3,82788.07974953899,500,1020,462
3030,3,3,82788.08974950915,511,1020,462
3031,3,3,82788.09974947933,519,1020,460
3032,3,3,82788.10974944949,529,1020,460
3033,3,3,82788.11974941967,536,1020,459
3034,3,3,82788.12974938983,540,1020,458
3035,3,3,82788.13974936001,539,1020,457
3036,3,3,82788.14974933017,537,1020,457
3037,3,3,82788.15974930034,537,1020,458
