,session,participant,time,ECG,EDA,Respiration
0,1,3,16731.975465959167,540,958,455
1,1,3,16731.985465770307,540,958,455
2,1,3,16731.995465581444,546,958,455
3,1,3,16732.005465392584,537,958,455
4,1,3,16732.01546520372,528,958,455
5,1,3,16732.02546501486,526,958,455
6,1,3,16732.035464826,525,958,455
7,1,3,16732.045464637136,523,957,454
8,1,3,16732.055464448276,524,957,452
9,1,3,16732.065464259416,523,957,450
10,1,3,16732.075464070553,518,957,450
11,1,3,16732.085463881693,519,957,449
12,1,3,16732.09546369283,514,957,449
13,1,3,16732.10546350397,508,956,451
14,1,3,16732.11546331511,506,956,454
15,1,3,16732.125463126245,503,956,456
16,1,3,16732.135462937385,508,956,460
17,1,3,16732.145462748525,505,956,463
18,1,3,16732.155462559662,507,956,464
19,1,3,16732.165462370802,504,956,469
20,1,3,16732.17546218194,505,955,471
21,1,3,16732.18546199308,511,956,474
22,1,3,16732.19546180422,520,955,476
23,1,3,16732.205461615355,521,955,478
24,1,3,16732.215461426495,520,955,479
25,1,3,16732.22546123763,518,955,479
26,1,3,16732.23546104877,523,955,479
27,1,3,16732.24546085991,518,955,477
28,1,3,16732.255460671047,502,955,476
29,1,3,16732.265460482187,475,954,473
30,1,3,16732.275460293327,453,955,470
31,1,3,16732.285460104464,532,954,467
32,1,3,16732.295459915604,687,954,465
33,1,3,16732.30545972674,667,954,464
34,1,3,16732.31545953788,559,954,463
35,1,3,16732.32545934902,491,954,463
36,1,3,16732.335459160156,468,954,462
37,1,3,16732.345458971296,470,954,462
38,1,3,16732.355458782436,467,953,463
39,1,3,16732.365458593573,471,953,464
40,1,3,16732.375458404713,470,953,466
41,1,3,16732.38545821585,478,953,468
42,1,3,16732.39545802699,476,953,471
43,1,3,16732.40545783813,481,953,476
44,1,3,16732.415457649266,480,953,479
45,1,3,16732.425457460406,481,952,483
46,1,3,16732.435457271542,482,953,486
47,1,3,16732.445457082682,487,953,487
48,1,3,16732.455456893822,486,952,489
49,1,3,16732.46545670496,483,952,492
50,1,3,16732.4754565161,482,952,494
51,1,3,16732.48545632724,483,952,497
52,1,3,16732.495456138375,482,952,500
53,1,3,16732.505455949515,486,952,502
54,1,3,16732.51545576065,490,952,505
55,1,3,16732.52545557179,498,952,507
56,1,3,16732.53545538293,511,952,510
57,1,3,16732.545455194067,519,952,512
58,1,3,16732.555455005207,527,952,513
59,1,3,16732.565454816347,536,952,516
60,1,3,16732.575454627484,539,952,518
61,1,3,16732.585454438624,536,952,519
62,1,3,16732.59545424976,534,952,520
63,1,3,16732.6054540609,533,952,521
64,1,3,16732.61545387204,528,951,522
65,1,3,16732.625453683177,530,952,524
66,1,3,16732.635453494317,527,952,525
67,1,3,16732.645453305457,524,951,525
68,1,3,16732.655453116593,519,951,526
69,1,3,16732.665452927733,519,952,527
70,1,3,16732.67545273887,516,951,527
71,1,3,16732.68545255001,517,951,528
72,1,3,16732.69545236115,513,951,530
73,1,3,16732.705452172286,512,951,531
74,1,3,16732.715451983426,504,951,534
75,1,3,16732.725451794562,504,951,536
76,1,3,16732.735451605702,505,950,539
77,1,3,16732.745451416842,508,950,542
78,1,3,16732.75545122798,504,950,543
79,1,3,16732.76545103912,502,950,546
80,1,3,16732.77545085026,506,950,548
81,1,3,16732.785450661395,506,950,551
82,1,3,16732.795450472535,523,950,552
83,1,3,16732.80545028367,526,950,556
84,1,3,16732.81545009481,525,950,558
85,1,3,16732.82544990595,524,950,560
86,1,3,16732.835449717088,520,949,564
87,1,3,16732.845449528228,517,949,568
88,1,3,16732.855449339368,516,949,572
89,1,3,16732.865449150504,497,949,576
90,1,3,16732.875448961644,462,949,581
91,1,3,16732.88544877278,464,949,584
92,1,3,16732.89544858392,640,949,589
93,1,3,16732.90544839506,706,949,593
94,1,3,16732.915448206197,600,948,596
95,1,3,16732.925448017337,511,949,601
96,1,3,16732.935447828473,470,948,604
97,1,3,16732.945447639613,464,948,609
98,1,3,16732.955447450753,467,948,613
99,1,3,16732.96544726189,466,948,617
100,1,3,16732.97544707303,472,948,621
101,1,3,16732.98544688417,473,948,627
102,1,3,16732.995446695306,477,948,632
103,1,3,16733.005446506446,478,948,639
104,1,3,16733.015446317582,481,948,646
105,1,3,16733.025446128722,488,948,652
106,1,3,16733.035445939862,481,947,658
107,1,3,16733.045445751,481,947,664
108,1,3,16733.05544556214,487,947,668
109,1,3,16733.06544537328,482,947,673
110,1,3,16733.075445184415,470,947,678
111,1,3,16733.085444995555,476,947,683
112,1,3,16733.09544480669,480,947,685
113,1,3,16733.10544461783,486,947,688
114,1,3,16733.11544442897,492,947,690
115,1,3,16733.125444240108,497,947,692
116,1,3,16733.135444051248,507,947,695
117,1,3,16733.145443862384,540,946,697
118,1,3,16733.155443673524,524,946,700
119,1,3,16733.165443484664,526,946,702
120,1,3,16733.1754432958,530,946,704
121,1,3,16733.18544310694,537,946,706
122,1,3,16733.19544291808,540,946,707
123,1,3,16733.205442729217,543,946,709
124,1,3,16733.215442540357,536,946,711
125,1,3,16733.225442351493,538,945,712
126,1,3,16733.235442162633,517,946,714
127,1,3,16733.245441973773,527,945,715
128,1,3,16733.25544178491,515,945,716
129,1,3,16733.26544159605,527,945,717
130,1,3,16733.27544140719,516,945,718
131,1,3,16733.285441218326,517,945,719
132,1,3,16733.295441029466,539,945,721
133,1,3,16733.305440840602,516,945,723
134,1,3,16733.315440651742,497,944,724
135,1,3,16733.325440462882,508,944,726
136,1,3,16733.33544027402,499,944,727
137,1,3,16733.34544008516,530,944,728
138,1,3,16733.355439896295,487,944,729
139,1,3,16733.365439707435,504,944,729
140,1,3,16733.375439518575,494,944,730
141,1,3,16733.38543932971,495,944,731
142,1,3,16733.39543914085,505,943,732
143,1,3,16733.40543895199,505,943,733
144,1,3,16733.415438763128,521,943,735
145,1,3,16733.425438574268,527,943,737
146,1,3,16733.435438385404,521,943,739
147,1,3,16733.445438196544,518,943,741
148,1,3,16733.455438007684,521,943,743
149,1,3,16733.46543781882,518,942,744
150,1,3,16733.47543762996,511,942,746
151,1,3,16733.4854374411,491,942,747
152,1,3,16733.495437252237,462,942,748
153,1,3,16733.505437063377,467,942,749
154,1,3,16733.515436874513,639,942,750
155,1,3,16733.525436685653,680,942,751
156,1,3,16733.535436496793,608,942,752
157,1,3,16733.54543630793,521,942,753
158,1,3,16733.55543611907,475,942,755
159,1,3,16733.565435930206,464,942,755
160,1,3,16733.575435741346,462,941,756
161,1,3,16733.585435552486,467,941,756
162,1,3,16733.595435363623,467,941,755
163,1,3,16733.605435174763,473,941,755
164,1,3,16733.615434985903,472,940,753
165,1,3,16733.62543479704,474,941,753
166,1,3,16733.63543460818,473,940,752
167,1,3,16733.645434419315,473,940,751
168,1,3,16733.655434230455,476,940,750
169,1,3,16733.665434041595,477,940,748
170,1,3,16733.67543385273,483,940,744
171,1,3,16733.68543366387,486,940,739
172,1,3,16733.69543347501,487,940,734
173,1,3,16733.705433286148,480,940,728
174,1,3,16733.715433097288,477,940,721
175,1,3,16733.725432908424,484,940,713
176,1,3,16733.735432719564,486,939,705
177,1,3,16733.745432530704,494,940,696
178,1,3,16733.75543234184,496,939,687
179,1,3,16733.76543215298,498,939,677
180,1,3,16733.775431964117,533,939,668
181,1,3,16733.785431775257,530,939,659
182,1,3,16733.795431586397,536,939,648
183,1,3,16733.805431397534,548,939,638
184,1,3,16733.815431208674,547,938,627
185,1,3,16733.825431019814,563,938,617
186,1,3,16733.83543083095,557,939,608
187,1,3,16733.84543064209,543,938,597
188,1,3,16733.855430453226,536,938,589
189,1,3,16733.865430264366,520,938,580
190,1,3,16733.875430075506,504,938,571
191,1,3,16733.885429886643,516,938,562
192,1,3,16733.895429697783,525,938,553
193,1,3,16733.905429508923,532,937,545
194,1,3,16733.91542932006,521,937,539
195,1,3,16733.9254291312,520,938,533
196,1,3,16733.935428942335,505,937,529
197,1,3,16733.945428753475,519,937,526
198,1,3,16733.955428564615,506,937,524
199,1,3,16733.96542837575,507,937,521
200,1,3,16733.97542818689,505,937,519
201,1,3,16733.98542799803,521,936,517
202,1,3,16733.995427809168,499,937,513
203,1,3,16734.00542762031,502,936,511
204,1,3,16734.015427431445,510,936,507
205,1,3,16734.025427242585,509,936,504
206,1,3,16734.035427053725,524,936,502
207,1,3,16734.04542686486,533,936,498
208,1,3,16734.055426676,524,935,496
209,1,3,16734.065426487137,524,936,492
210,1,3,16734.075426298277,521,935,489
211,1,3,16734.085426109417,520,935,486
212,1,3,16734.095425920554,516,935,482
213,1,3,16734.105425731694,492,935,480
214,1,3,16734.115425542834,459,935,477
215,1,3,16734.12542535397,469,935,474
216,1,3,16734.13542516511,652,934,472
217,1,3,16734.145424976246,680,935,470
218,1,3,16734.155424787386,597,934,466
219,1,3,16734.165424598526,515,934,463
220,1,3,16734.175424409663,463,934,458
221,1,3,16734.185424220803,469,934,454
222,1,3,16734.195424031943,460,934,450
223,1,3,16734.20542384308,477,934,447
224,1,3,16734.21542365422,471,934,445
225,1,3,16734.225423465356,467,933,443
226,1,3,16734.235423276496,508,933,443
227,1,3,16734.245423087636,469,933,444
228,1,3,16734.255422898772,459,933,444
229,1,3,16734.265422709912,462,933,445
230,1,3,16734.27542252105,472,932,444
231,1,3,16734.28542233219,480,932,443
232,1,3,16734.29542214333,482,932,444
233,1,3,16734.305421954465,484,932,444
234,1,3,16734.315421765605,481,932,447
235,1,3,16734.325421576745,481,932,448
236,1,3,16734.33542138788,486,931,451
237,1,3,16734.34542119902,487,932,453
238,1,3,16734.355421010157,488,932,456
239,1,3,16734.365420821297,498,931,459
240,1,3,16734.375420632437,507,931,462
241,1,3,16734.385420443574,512,931,463
242,1,3,16734.395420254714,525,931,465
243,1,3,16734.405420065854,540,931,466
244,1,3,16734.41541987699,534,931,467
245,1,3,16734.42541968813,537,931,469
246,1,3,16734.435419499267,539,931,469
247,1,3,16734.445419310407,532,931,470
248,1,3,16734.455419121547,529,931,471
249,1,3,16734.465418932683,533,931,471
250,1,3,16734.475418743823,527,931,472
251,1,3,16734.48541855496,523,930,471
252,1,3,16734.4954183661,521,930,471
253,1,3,16734.50541817724,519,930,469
254,1,3,16734.515417988376,511,930,467
255,1,3,16734.525417799516,515,929,463
256,1,3,16734.535417610656,514,929,461
257,1,3,16734.545417421792,515,929,459
258,1,3,16734.555417232932,508,929,457
259,1,3,16734.56541704407,511,929,457
260,1,3,16734.57541685521,509,929,456
261,1,3,16734.58541666635,515,928,457
262,1,3,16734.595416477485,502,928,460
263,1,3,16734.605416288625,503,929,462
264,1,3,16734.615416099765,501,928,464
265,1,3,16734.6254159109,503,928,468
266,1,3,16734.63541572204,500,928,472
267,1,3,16734.645415533178,503,928,475
268,1,3,16734.655415344318,507,928,478
269,1,3,16734.665415155458,499,928,480
270,1,3,16734.675414966594,516,928,481
271,1,3,16734.685414777734,521,928,482
272,1,3,16734.69541458887,520,927,481
273,1,3,16734.70541440001,523,928,481
274,1,3,16734.71541421115,516,927,480
275,1,3,16734.725414022287,520,927,479
276,1,3,16734.735413833427,517,928,478
277,1,3,16734.745413644567,496,927,478
278,1,3,16734.755413455703,465,927,477
279,1,3,16734.765413266843,439,927,476
280,1,3,16734.77541307798,562,927,476
281,1,3,16734.78541288912,696,928,476
282,1,3,16734.79541270026,648,927,477
283,1,3,16734.805412511396,535,927,477
284,1,3,16734.815412322536,479,927,479
285,1,3,16734.825412133676,464,927,481
286,1,3,16734.835411944812,463,927,483
287,1,3,16734.845411755952,462,927,484
288,1,3,16734.85541156709,463,927,485
289,1,3,16734.86541137823,473,926,486
290,1,3,16734.87541118937,469,926,487
291,1,3,16734.885411000505,477,926,487
292,1,3,16734.895410811645,478,926,488
293,1,3,16734.90541062278,475,926,489
294,1,3,16734.91541043392,480,926,490
295,1,3,16734.92541024506,489,926,491
296,1,3,16734.935410056198,480,926,492
297,1,3,16734.945409867338,477,926,495
298,1,3,16734.955409678478,488,925,499
299,1,3,16734.965409489614,475,925,501
300,1,3,16734.975409300754,475,925,504
301,1,3,16734.98540911189,470,925,507
302,1,3,16734.99540892303,489,925,511
303,1,3,16735.00540873417,488,924,515
304,1,3,16735.015408545307,509,924,518
305,1,3,16735.025408356447,516,924,523
306,1,3,16735.035408167587,528,924,526
307,1,3,16735.045407978723,526,924,532
308,1,3,16735.055407789863,533,924,536
309,1,3,16735.065407601,544,924,541
310,1,3,16735.07540741214,554,924,547
311,1,3,16735.08540722328,552,924,552
312,1,3,16735.095407034416,533,924,559
313,1,3,16735.105406845556,532,924,564
314,1,3,16735.115406656692,543,924,569
315,1,3,16735.125406467832,540,924,574
316,1,3,16735.135406278972,536,924,579
317,1,3,16735.14540609011,535,924,582
318,1,3,16735.15540590125,555,924,586
319,1,3,16735.16540571239,511,924,591
320,1,3,16735.175405523525,512,924,596
321,1,3,16735.185405334665,531,925,601
322,1,3,16735.1954051458,520,925,608
323,1,3,16735.20540495694,530,924,615
324,1,3,16735.21540476808,535,924,622
325,1,3,16735.225404579218,537,923,629
326,1,3,16735.235404390358,519,923,636
327,1,3,16735.245404201498,525,922,643
328,1,3,16735.255404012634,527,922,649
329,1,3,16735.265403823774,537,921,655
330,1,3,16735.27540363491,523,921,660
331,1,3,16735.28540344605,512,920,665
332,1,3,16735.29540325719,525,920,668
333,1,3,16735.305403068327,512,919,671
334,1,3,16735.315402879467,519,918,673
335,1,3,16735.325402690607,518,917,675
336,1,3,16735.335402501743,536,916,676
337,1,3,16735.345402312883,534,915,678
338,1,3,16735.35540212402,514,915,680
339,1,3,16735.36540193516,539,914,682
340,1,3,16735.3754017463,542,913,685
341,1,3,16735.385401557436,530,913,688
342,1,3,16735.395401368576,549,911,690
343,1,3,16735.405401179712,528,911,693
344,1,3,16735.415400990853,534,910,696
345,1,3,16735.425400801993,486,910,699
346,1,3,16735.43540061313,474,910,702
347,1,3,16735.44540042427,445,909,704
348,1,3,16735.45540023541,624,909,707
349,1,3,16735.465400046545,720,908,710
350,1,3,16735.475399857685,637,908,711
351,1,3,16735.48539966882,528,908,713
352,1,3,16735.49539947996,467,908,712
353,1,3,16735.5053992911,477,908,711
354,1,3,16735.515399102238,465,908,708
355,1,3,16735.525398913378,486,908,704
356,1,3,16735.535398724518,498,908,699
357,1,3,16735.545398535654,447,908,693
358,1,3,16735.555398346794,481,908,687
359,1,3,16735.56539815793,497,907,679
360,1,3,16735.57539796907,479,907,673
361,1,3,16735.58539778021,481,907,666
362,1,3,16735.595397591347,500,907,659
363,1,3,16735.605397402487,483,906,652
364,1,3,16735.615397213624,477,906,646
365,1,3,16735.625397024764,484,906,640
366,1,3,16735.635396835904,488,905,635
367,1,3,16735.64539664704,480,905,630
368,1,3,16735.65539645818,487,905,627
369,1,3,16735.66539626932,476,904,624
370,1,3,16735.675396080456,493,904,622
371,1,3,16735.685395891596,494,904,620
372,1,3,16735.695395702733,493,904,618
373,1,3,16735.705395513873,503,903,615
374,1,3,16735.715395325013,532,903,613
375,1,3,16735.72539513615,531,903,611
376,1,3,16735.73539494729,542,903,609
377,1,3,16735.74539475843,537,903,608
378,1,3,16735.755394569565,535,903,609
379,1,3,16735.765394380705,531,903,610
380,1,3,16735.77539419184,533,902,613
381,1,3,16735.78539400298,527,903,619
382,1,3,16735.79539381412,515,903,626
383,1,3,16735.805393625258,528,903,634
384,1,3,16735.815393436398,516,902,643
385,1,3,16735.825393247535,517,902,652
386,1,3,16735.835393058675,508,901,660
387,1,3,16735.845392869815,515,901,667
388,1,3,16735.85539268095,511,901,672
389,1,3,16735.86539249209,506,901,678
390,1,3,16735.87539230323,506,901,683
391,1,3,16735.885392114367,500,901,688
392,1,3,16735.895391925507,501,900,694
393,1,3,16735.905391736644,500,901,700
394,1,3,16735.915391547784,496,900,708
395,1,3,16735.925391358924,498,900,716
396,1,3,16735.93539117006,497,901,724
397,1,3,16735.9453909812,503,900,734
398,1,3,16735.95539079234,493,900,743
399,1,3,16735.965390603476,495,900,755
400,1,3,16735.975390414616,490,900,766
401,1,3,16735.985390225753,472,901,779
402,1,3,16735.995390036893,492,902,792
403,1,3,16736.005389848033,491,903,806
404,1,3,16736.01538965917,478,906,818
405,1,3,16736.02538947031,482,909,830
406,1,3,16736.035389281446,484,912,841
407,1,3,16736.045389092586,477,917,851
408,1,3,16736.055388903726,496,921,862
409,1,3,16736.065388714862,505,925,871
410,1,3,16736.075388526002,509,929,879
411,1,3,16736.085388337142,503,933,888
412,1,3,16736.09538814828,499,937,895
413,1,3,16736.10538795942,500,940,902
414,1,3,16736.115387770555,490,944,908
415,1,3,16736.125387581695,469,946,913
416,1,3,16736.135387392835,441,949,916
417,1,3,16736.14538720397,480,952,918
418,1,3,16736.15538701511,631,955,918
419,1,3,16736.16538682625,641,958,917
420,1,3,16736.175386637387,561,960,914
421,1,3,16736.185386448527,499,962,911
422,1,3,16736.195386259664,468,964,907
423,1,3,16736.205386070804,463,967,903
424,1,3,16736.215385881944,460,968,899
425,1,3,16736.22538569308,454,969,895
426,1,3,16736.23538550422,475,971,891
427,1,3,16736.245385315357,478,971,888
428,1,3,16736.255385126497,476,972,887
429,1,3,16736.265384937637,474,972,886
430,1,3,16736.275384748773,482,972,885
431,1,3,16736.285384559913,490,972,883
432,1,3,16736.295384371053,482,972,880
433,1,3,16736.30538418219,485,972,877
434,1,3,16736.31538399333,481,971,872
435,1,3,16736.325383804466,485,971,866
436,1,3,16736.335383615606,492,970,859
437,1,3,16736.345383426746,487,968,851
438,1,3,16736.355383237882,473,967,843
439,1,3,16736.365383049022,478,967,834
440,1,3,16736.375382860162,486,966,824
441,1,3,16736.3853826713,500,964,814
442,1,3,16736.39538248244,510,963,803
443,1,3,16736.405382293575,512,961,791
444,1,3,16736.415382104715,522,960,778
445,1,3,16736.425381915855,541,959,764
446,1,3,16736.43538172699,536,958,750
447,1,3,16736.44538153813,551,957,736
448,1,3,16736.45538134927,531,956,722
449,1,3,16736.465381160408,533,955,708
450,1,3,16736.475380971548,535,955,696
451,1,3,16736.485380782684,536,954,683
452,1,3,16736.495380593824,531,953,672
453,1,3,16736.505380404964,525,952,661
454,1,3,16736.5153802161,519,952,650
455,1,3,16736.52538002724,519,952,639
456,1,3,16736.535379838377,521,952,630
457,1,3,16736.545379649517,520,952,619
458,1,3,16736.555379460657,516,952,611
459,1,3,16736.565379271793,523,952,602
460,1,3,16736.575379082933,508,952,594
461,1,3,16736.585378894073,515,952,586
462,1,3,16736.59537870521,515,952,579
463,1,3,16736.60537851635,509,953,574
464,1,3,16736.615378327486,515,953,568
465,1,3,16736.625378138626,527,954,563
466,1,3,16736.635377949766,509,954,560
467,1,3,16736.645377760902,511,955,556
468,1,3,16736.655377572042,499,956,553
469,1,3,16736.665377383182,501,956,552
470,1,3,16736.67537719432,499,957,551
471,1,3,16736.68537700546,508,958,550
472,1,3,16736.695376816595,516,958,548
473,1,3,16736.705376627735,529,959,549
474,1,3,16736.715376438875,513,959,549
475,1,3,16736.72537625001,523,959,551
476,1,3,16736.73537606115,515,959,554
477,1,3,16736.745375872288,517,960,557
478,1,3,16736.755375683428,518,960,560
479,1,3,16736.765375494568,504,960,562
480,1,3,16736.775375305704,477,959,564
481,1,3,16736.785375116844,476,960,565
482,1,3,16736.795374927984,549,959,566
483,1,3,16736.80537473912,645,959,566
484,1,3,16736.81537455026,637,959,568
485,1,3,16736.825374361397,552,959,570
486,1,3,16736.835374172537,495,959,573
487,1,3,16736.845373983677,470,959,575
488,1,3,16736.855373794813,471,959,576
489,1,3,16736.865373605953,478,960,578
490,1,3,16736.875373417093,483,960,579
491,1,3,16736.88537322823,489,960,579
492,1,3,16736.89537303937,480,960,578
493,1,3,16736.905372850506,483,960,575
494,1,3,16736.915372661646,480,960,573
495,1,3,16736.925372472786,477,960,568
496,1,3,16736.935372283922,486,960,562
497,1,3,16736.945372095062,503,960,555
498,1,3,16736.9553719062,492,959,547
499,1,3,16736.96537171734,499,960,540
500,1,3,16736.97537152848,477,960,535
501,1,3,16736.985371339615,472,959,528
502,1,3,16736.995371150755,492,959,522
503,1,3,16737.005370961895,480,959,515
504,1,3,16737.01537077303,493,959,508
505,1,3,16737.02537058417,509,959,501
506,1,3,16737.035370395308,511,959,494
507,1,3,16737.045370206448,509,958,487
508,1,3,16737.055370017588,521,958,482
509,1,3,16737.065369828724,506,958,477
510,1,3,16737.075369639864,538,958,472
511,1,3,16737.085369451004,532,957,467
512,1,3,16737.09536926214,544,957,464
513,1,3,16737.10536907328,545,957,460
514,1,3,16737.115368884417,540,956,454
515,1,3,16737.125368695557,537,956,449
516,1,3,16737.135368506697,530,955,442
517,1,3,16737.145368317833,524,955,439
518,1,3,16737.155368128973,523,954,434
519,1,3,16737.16536794011,524,953,431
520,1,3,16737.17536775125,520,953,428
521,1,3,16737.18536756239,512,953,424
522,1,3,16737.195367373526,517,952,421
523,1,3,16737.205367184666,517,952,419
524,1,3,16737.215366995806,505,952,419
525,1,3,16737.225366806942,531,952,419
526,1,3,16737.235366618082,530,952,418
527,1,3,16737.24536642922,478,951,417
528,1,3,16737.25536624036,500,951,417
529,1,3,16737.2653660515,503,950,418
530,1,3,16737.275365862635,504,950,419
531,1,3,16737.285365673775,496,950,420
532,1,3,16737.295365484915,509,950,423
533,1,3,16737.30536529605,505,949,423
534,1,3,16737.31536510719,502,949,422
535,1,3,16737.325364918328,501,948,418
536,1,3,16737.335364729468,509,947,415
537,1,3,16737.345364540608,515,947,410
538,1,3,16737.355364351744,519,946,403
539,1,3,16737.365364162884,521,945,395
540,1,3,16737.37536397402,523,945,390
541,1,3,16737.38536378516,527,944,385
542,1,3,16737.3953635963,509,944,379
543,1,3,16737.405363407437,518,943,376
544,1,3,16737.415363218577,492,943,371
545,1,3,16737.425363029717,469,942,367
546,1,3,16737.435362840853,454,941,365
547,1,3,16737.445362651993,543,941,363
548,1,3,16737.45536246313,655,940,361
549,1,3,16737.46536227427,631,939,358
550,1,3,16737.47536208541,554,939,357
551,1,3,16737.485361896546,484,938,356
552,1,3,16737.495361707686,481,938,354
553,1,3,16737.505361518826,477,938,353
554,1,3,16737.515361329963,482,937,353
555,1,3,16737.525361141103,480,937,351
556,1,3,16737.53536095224,476,937,351
557,1,3,16737.54536076338,484,937,350
558,1,3,16737.55536057452,489,937,351
559,1,3,16737.565360385655,487,936,351
560,1,3,16737.575360196795,492,935,349
561,1,3,16737.58536000793,481,935,348
562,1,3,16737.59535981907,487,933,346
563,1,3,16737.60535963021,493,931,343
564,1,3,16737.615359441348,488,929,342
565,1,3,16737.625359252488,486,928,341
566,1,3,16737.635359063628,483,927,340
567,1,3,16737.645358874764,489,926,339
568,1,3,16737.655358685905,483,924,338
569,1,3,16737.66535849704,499,923,338
570,1,3,16737.67535830818,494,922,336
571,1,3,16737.68535811932,502,921,338
572,1,3,16737.695357930457,507,921,337
573,1,3,16737.705357741597,517,920,339
574,1,3,16737.715357552737,527,920,340
575,1,3,16737.725357363874,543,919,344
576,1,3,16737.735357175014,531,918,347
577,1,3,16737.74535698615,535,918,351
578,1,3,16737.75535679729,537,918,354
579,1,3,16737.76535660843,527,917,359
580,1,3,16737.775356419566,532,916,364
581,1,3,16737.785356230706,529,916,370
582,1,3,16737.795356041846,526,916,376
583,1,3,16737.805355852983,521,916,384
584,1,3,16737.815355664123,522,915,393
585,1,3,16737.82535547526,516,915,400
586,1,3,16737.8353552864,518,915,408
587,1,3,16737.84535509754,518,915,418
588,1,3,16737.855354908676,514,915,426
589,1,3,16737.865354719816,510,915,433
590,1,3,16737.875354530952,515,915,441
591,1,3,16737.885354342092,513,915,448
592,1,3,16737.895354153232,512,916,454
593,1,3,16737.90535396437,508,916,459
594,1,3,16737.91535377551,503,917,464
595,1,3,16737.92535358665,519,917,467
596,1,3,16737.935353397785,519,918,471
597,1,3,16737.945353208925,495,918,473
598,1,3,16737.95535302006,494,919,476
599,1,3,16737.9653528312,495,920,477
600,1,3,16737.97535264234,499,920,478
601,1,3,16737.985352453477,503,920,479
602,1,3,16737.995352264617,516,921,477
603,1,3,16738.005352075757,519,922,475
604,1,3,16738.015351886894,520,922,472
605,1,3,16738.025351698034,522,922,470
606,1,3,16738.03535150917,521,923,468
607,1,3,16738.04535132031,527,923,467
608,1,3,16738.05535113145,515,923,465
609,1,3,16738.065350942587,494,924,466
610,1,3,16738.075350753727,465,924,468
611,1,3,16738.085350564863,443,924,470
612,1,3,16738.095350376003,553,925,474
613,1,3,16738.105350187143,673,925,478
614,1,3,16738.11534999828,636,925,481
615,1,3,16738.12534980942,544,925,486
616,1,3,16738.13534962056,491,925,489
617,1,3,16738.145349431696,481,925,493
618,1,3,16738.155349242836,471,925,498
619,1,3,16738.165349053972,474,925,503
620,1,3,16738.175348865112,478,925,506
621,1,3,16738.185348676252,478,925,511
622,1,3,16738.19534848739,483,925,515
623,1,3,16738.20534829853,484,925,519
624,1,3,16738.21534810967,489,925,523
625,1,3,16738.225347920805,484,924,525
626,1,3,16738.235347731945,487,924,527
627,1,3,16738.24534754308,489,924,527
628,1,3,16738.25534735422,486,924,527
629,1,3,16738.26534716536,484,923,528
630,1,3,16738.275346976498,487,922,527
631,1,3,16738.285346787638,484,922,527
632,1,3,16738.295346598774,488,922,528
633,1,3,16738.305346409914,484,922,527
634,1,3,16738.315346221054,497,921,527
635,1,3,16738.32534603219,487,921,527
636,1,3,16738.33534584333,497,921,526
637,1,3,16738.34534565447,517,921,525
638,1,3,16738.355345465607,532,921,524
639,1,3,16738.365345276747,532,921,522
640,1,3,16738.375345087883,524,921,521
641,1,3,16738.385344899023,535,921,519
642,1,3,16738.395344710163,536,921,516
643,1,3,16738.4053445213,532,921,513
644,1,3,16738.41534433244,533,921,510
645,1,3,16738.42534414358,534,921,507
646,1,3,16738.435343954716,527,921,506
647,1,3,16738.445343765856,525,921,504
648,1,3,16738.455343576992,521,921,502
649,1,3,16738.465343388132,520,921,501
650,1,3,16738.475343199272,516,921,502
651,1,3,16738.48534301041,515,921,502
652,1,3,16738.49534282155,516,920,501
653,1,3,16738.505342632685,515,920,503
654,1,3,16738.515342443825,514,920,504
655,1,3,16738.525342254965,514,920,505
656,1,3,16738.5353420661,511,920,505
657,1,3,16738.54534187724,511,920,504
658,1,3,16738.55534168838,511,920,502
659,1,3,16738.565341499518,512,920,499
660,1,3,16738.575341310658,504,920,495
661,1,3,16738.585341121794,503,920,489
662,1,3,16738.595340932934,501,920,484
663,1,3,16738.605340744074,505,920,479
664,1,3,16738.61534055521,504,919,472
665,1,3,16738.62534036635,504,920,466
666,1,3,16738.63534017749,504,919,459
667,1,3,16738.645339988627,499,920,454
668,1,3,16738.655339799767,516,919,449
669,1,3,16738.665339610903,523,919,444
670,1,3,16738.675339422043,520,919,439
671,1,3,16738.685339233183,523,919,436
672,1,3,16738.69533904432,519,919,432
673,1,3,16738.70533885546,518,919,429
674,1,3,16738.715338666596,517,919,426
675,1,3,16738.725338477736,502,919,424
676,1,3,16738.735338288876,471,918,421
677,1,3,16738.745338100012,453,918,417
678,1,3,16738.755337911152,551,919,414
679,1,3,16738.765337722292,672,918,412
680,1,3,16738.77533753343,648,919,408
681,1,3,16738.78533734457,551,918,405
682,1,3,16738.795337155705,491,918,404
683,1,3,16738.805336966845,475,918,403
684,1,3,16738.815336777985,474,918,405
685,1,3,16738.82533658912,475,918,408
686,1,3,16738.83533640026,479,917,411
687,1,3,16738.8453362114,476,918,416
688,1,3,16738.855336022538,481,917,422
689,1,3,16738.865335833678,480,917,429
690,1,3,16738.875335644814,483,917,436
691,1,3,16738.885335455954,484,917,444
692,1,3,16738.895335267094,495,917,451
693,1,3,16738.90533507823,491,917,458
694,1,3,16738.91533488937,485,918,465
695,1,3,16738.925334700507,482,917,470
696,1,3,16738.935334511647,475,918,475
697,1,3,16738.945334322787,483,918,480
698,1,3,16738.955334133923,474,918,484
699,1,3,16738.965333945063,476,918,487
700,1,3,16738.975333756203,489,918,491
701,1,3,16738.98533356734,496,918,492
702,1,3,16738.99533337848,480,918,492
703,1,3,16739.005333189616,503,918,489
704,1,3,16739.015333000756,511,919,480
705,1,3,16739.025332811896,513,919,468
706,1,3,16739.035332623032,535,919,455
707,1,3,16739.045332434172,538,919,442
708,1,3,16739.055332245312,538,919,426
709,1,3,16739.06533205645,532,920,410
710,1,3,16739.07533186759,537,920,388
711,1,3,16739.085331678725,527,920,365
712,1,3,16739.095331489865,528,920,340
713,1,3,16739.105331301005,515,920,321
714,1,3,16739.11533111214,521,920,301
715,1,3,16739.12533092328,527,920,284
716,1,3,16739.13533073442,512,920,268
717,1,3,16739.145330545558,525,920,250
718,1,3,16739.155330356698,518,920,237
719,1,3,16739.165330167834,521,920,222
720,1,3,16739.175329978974,508,920,208
721,1,3,16739.185329790114,518,920,197
722,1,3,16739.19532960125,526,920,185
723,1,3,16739.20532941239,509,920,172
724,1,3,16739.215329223527,528,921,164
725,1,3,16739.225329034667,526,920,153
726,1,3,16739.235328845807,525,920,144
727,1,3,16739.245328656943,511,920,134
728,1,3,16739.255328468083,517,920,129
729,1,3,16739.265328279223,505,920,120
730,1,3,16739.27532809036,502,920,115
731,1,3,16739.2853279015,505,920,110
732,1,3,16739.295327712636,521,920,102
733,1,3,16739.305327523776,522,920,100
734,1,3,16739.315327334916,519,920,95
735,1,3,16739.325327146053,529,920,91
736,1,3,16739.335326957193,542,920,90
737,1,3,16739.345326768333,557,920,86
738,1,3,16739.35532657947,552,920,87
739,1,3,16739.36532639061,557,920,82
740,1,3,16739.375326201745,560,920,83
741,1,3,16739.385326012885,543,920,80
742,1,3,16739.395325824025,524,920,73
743,1,3,16739.40532563516,477,920,71
744,1,3,16739.4153254463,462,920,67
745,1,3,16739.425325257438,618,920,63
746,1,3,16739.435325068578,724,920,59
747,1,3,16739.445324879718,660,920,58
748,1,3,16739.455324690854,549,920,53
749,1,3,16739.465324501994,486,920,54
750,1,3,16739.475324313134,471,920,55
751,1,3,16739.48532412427,481,920,56
752,1,3,16739.49532393541,470,920,63
753,1,3,16739.505323746547,469,920,71
754,1,3,16739.515323557687,472,920,75
755,1,3,16739.525323368827,476,920,87
756,1,3,16739.535323179964,476,920,93
757,1,3,16739.545322991104,476,920,106
758,1,3,16739.555322802244,475,920,112
759,1,3,16739.56532261338,474,920,121
760,1,3,16739.57532242452,471,920,127
761,1,3,16739.585322235656,476,920,135
762,1,3,16739.595322046796,469,920,139
763,1,3,16739.605321857936,470,920,145
764,1,3,16739.615321669073,469,920,152
765,1,3,16739.625321480213,473,920,153
766,1,3,16739.63532129135,481,920,156
767,1,3,16739.64532110249,463,920,159
768,1,3,16739.65532091363,477,920,161
769,1,3,16739.665320724765,488,920,162
770,1,3,16739.675320535905,505,920,166
771,1,3,16739.685320347045,531,920,167
772,1,3,16739.695320158182,532,920,175
773,1,3,16739.705319969322,539,920,178
774,1,3,16739.71531978046,540,920,185
775,1,3,16739.7253195916,545,920,191
776,1,3,16739.73531940274,546,920,201
777,1,3,16739.745319213875,543,920,211
778,1,3,16739.755319025015,539,920,220
779,1,3,16739.765318836155,543,920,230
780,1,3,16739.77531864729,523,920,240
781,1,3,16739.78531845843,528,920,248
782,1,3,16739.795318269567,520,920,257
783,1,3,16739.805318080707,519,920,265
784,1,3,16739.815317891847,520,920,275
785,1,3,16739.825317702984,517,920,280
786,1,3,16739.835317514124,515,920,291
787,1,3,16739.84531732526,524,920,296
788,1,3,16739.8553171364,520,920,307
789,1,3,16739.86531694754,514,920,316
790,1,3,16739.875316758676,512,921,327
791,1,3,16739.885316569816,498,921,338
792,1,3,16739.895316380957,519,920,350
793,1,3,16739.905316192093,491,921,367
794,1,3,16739.915316003233,497,921,385
795,1,3,16739.92531581437,504,921,407
796,1,3,16739.93531562551,493,921,431
797,1,3,16739.94531543665,482,921,454
798,1,3,16739.955315247786,513,921,480
799,1,3,16739.965315058926,504,921,508
800,1,3,16739.975314870066,519,921,535
801,1,3,16739.985314681202,528,921,563
802,1,3,16739.995314492342,519,921,590
803,1,3,16740.00531430348,522,922,615
804,1,3,16740.01531411462,503,921,639
805,1,3,16740.02531392576,548,921,661
806,1,3,16740.035313736895,511,921,683
807,1,3,16740.045313548035,464,922,702
808,1,3,16740.05531335917,432,921,721
809,1,3,16740.06531317031,479,921,737
810,1,3,16740.07531298145,699,921,752
811,1,3,16740.085312792588,714,922,768
812,1,3,16740.095312603728,588,921,781
813,1,3,16740.105312414868,492,921,795
814,1,3,16740.115312226004,466,922,807
815,1,3,16740.125312037144,452,922,819
816,1,3,16740.13531184828,447,922,830
817,1,3,16740.14531165942,448,922,841
818,1,3,16740.15531147056,468,922,851
819,1,3,16740.165311281697,463,922,861
820,1,3,16740.175311092837,460,922,870
821,1,3,16740.185310903977,466,922,879
822,1,3,16740.195310715113,461,922,885
823,1,3,16740.205310526253,468,923,890
824,1,3,16740.21531033739,475,923,892
825,1,3,16740.22531014853,465,923,893
826,1,3,16740.23530995967,476,923,893
827,1,3,16740.245309770806,460,923,894
828,1,3,16740.255309581946,478,923,895
829,1,3,16740.265309393086,462,924,899
830,1,3,16740.275309204222,465,924,903
831,1,3,16740.285309015362,471,924,910
832,1,3,16740.2953088265,467,924,916
833,1,3,16740.30530863764,488,924,923
834,1,3,16740.31530844878,496,924,929
835,1,3,16740.325308259915,511,924,935
836,1,3,16740.335308071055,532,924,939
837,1,3,16740.34530788219,531,923,944
838,1,3,16740.35530769333,542,923,949
839,1,3,16740.36530750447,555,923,953
840,1,3,16740.375307315608,525,923,957
841,1,3,16740.385307126748,532,922,961
842,1,3,16740.395306937888,539,922,965
843,1,3,16740.405306749024,533,922,968
844,1,3,16740.415306560164,534,922,971
845,1,3,16740.4253063713,516,922,974
846,1,3,16740.43530618244,507,922,974
847,1,3,16740.44530599358,549,922,972
848,1,3,16740.455305804717,494,922,966
849,1,3,16740.465305615857,496,922,959
850,1,3,16740.475305426997,514,922,949
851,1,3,16740.485305238133,516,922,940
852,1,3,16740.495305049273,509,922,934
853,1,3,16740.50530486041,518,922,932
854,1,3,16740.51530467155,537,922,934
855,1,3,16740.52530448269,495,922,937
856,1,3,16740.535304293826,488,922,944
857,1,3,16740.545304104966,525,922,950
858,1,3,16740.555303916102,539,922,956
859,1,3,16740.565303727242,492,922,961
860,1,3,16740.575303538382,489,922,965
861,1,3,16740.58530334952,497,922,970
862,1,3,16740.59530316066,504,922,974
863,1,3,16740.6053029718,522,922,977
864,1,3,16740.615302782935,507,922,980
865,1,3,16740.625302594075,492,922,983
866,1,3,16740.63530240521,509,922,985
867,1,3,16740.64530221635,499,922,987
868,1,3,16740.65530202749,531,922,989
869,1,3,16740.665301838628,521,922,992
870,1,3,16740.675301649768,529,923,993
871,1,3,16740.685301460908,536,924,995
872,1,3,16740.695301272044,511,924,996
873,1,3,16740.705301083184,522,924,997
874,1,3,16740.71530089432,508,925,996
875,1,3,16740.72530070546,547,925,994
876,1,3,16740.7353005166,419,925,992
877,1,3,16740.745300327737,462,925,991
878,1,3,16740.755300138877,691,925,991
879,1,3,16740.765299950013,710,925,991
880,1,3,16740.775299761153,617,925,991
881,1,3,16740.785299572293,524,925,991
882,1,3,16740.79529938343,483,925,990
883,1,3,16740.80529919457,461,925,989
884,1,3,16740.81529900571,479,925,986
885,1,3,16740.825298816846,476,925,982
886,1,3,16740.835298627986,457,925,977
887,1,3,16740.845298439122,450,925,971
888,1,3,16740.855298250262,460,925,964
889,1,3,16740.865298061402,478,925,957
890,1,3,16740.87529787254,484,925,948
891,1,3,16740.88529768368,456,925,939
892,1,3,16740.89529749482,472,925,927
893,1,3,16740.905297305955,472,925,915
894,1,3,16740.915297117095,468,925,901
895,1,3,16740.92529692823,465,925,886
896,1,3,16740.93529673937,468,925,870
897,1,3,16740.94529655051,489,925,852
898,1,3,16740.955296361648,475,926,836
899,1,3,16740.965296172788,462,926,819
900,1,3,16740.975295983924,488,926,801
901,1,3,16740.985295795064,480,926,784
902,1,3,16740.995295606204,499,926,766
903,1,3,16741.00529541734,502,926,748
904,1,3,16741.01529522848,524,926,729
905,1,3,16741.02529503962,531,926,711
906,1,3,16741.035294850757,518,926,693
907,1,3,16741.045294661897,519,926,675
908,1,3,16741.055294473033,529,926,659
909,1,3,16741.065294284173,536,927,643
910,1,3,16741.075294095313,539,927,629
911,1,3,16741.08529390645,523,927,616
912,1,3,16741.09529371759,546,927,605
913,1,3,16741.10529352873,521,928,596
914,1,3,16741.115293339866,516,928,588
915,1,3,16741.125293151006,532,928,581
916,1,3,16741.135292962143,538,929,575
917,1,3,16741.145292773283,508,929,571
918,1,3,16741.155292584423,512,929,569
919,1,3,16741.16529239556,517,929,570
920,1,3,16741.1752922067,513,929,575
921,1,3,16741.185292017835,537,929,584
922,1,3,16741.195291828975,503,928,599
923,1,3,16741.205291640115,521,929,614
924,1,3,16741.21529145125,521,929,633
925,1,3,16741.22529126239,519,930,652
926,1,3,16741.23529107353,518,930,670
927,1,3,16741.245290884668,520,931,688
928,1,3,16741.255290695808,515,934,704
929,1,3,16741.265290506944,502,937,721
930,1,3,16741.275290318084,502,940,737
931,1,3,16741.285290129224,507,943,754
932,1,3,16741.29528994036,511,945,770
933,1,3,16741.3052897515,512,947,786
934,1,3,16741.31528956264,501,947,801
935,1,3,16741.325289373777,511,947,815
936,1,3,16741.335289184917,521,945,827
937,1,3,16741.345288996054,506,943,839
938,1,3,16741.355288807194,513,940,850
939,1,3,16741.365288618334,508,938,861
940,1,3,16741.37528842947,539,936,870
941,1,3,16741.38528824061,516,934,879
942,1,3,16741.395288051746,515,932,888
943,1,3,16741.405287862886,492,931,896
944,1,3,16741.415287674026,479,930,903
945,1,3,16741.425287485163,423,930,909
946,1,3,16741.435287296303,457,930,913
947,1,3,16741.445287107443,695,930,917
948,1,3,16741.45528691858,711,931,920
949,1,3,16741.46528672972,616,933,921
950,1,3,16741.475286540855,523,934,921
951,1,3,16741.485286351995,461,936,920
952,1,3,16741.495286163135,450,937,918
953,1,3,16741.505285974272,447,938,913
954,1,3,16741.515285785412,453,938,907
955,1,3,16741.525285596552,451,939,899
956,1,3,16741.53528540769,456,939,891
957,1,3,16741.54528521883,456,939,881
958,1,3,16741.555285029965,467,939,871
959,1,3,16741.565284841105,468,940,859
960,1,3,16741.575284652245,475,941,846
961,1,3,16741.58528446338,470,941,831
962,1,3,16741.59528427452,472,942,816
963,1,3,16741.60528408566,474,943,799
964,1,3,16741.615283896797,477,943,781
965,1,3,16741.625283707937,479,944,762
966,1,3,16741.635283519074,481,943,743
967,1,3,16741.645283330214,474,943,722
968,1,3,16741.655283141354,464,943,701
969,1,3,16741.66528295249,470,942,679
970,1,3,16741.67528276363,476,941,658
971,1,3,16741.685282574766,494,940,636
972,1,3,16741.695282385906,509,940,614
973,1,3,16741.705282197046,521,940,592
974,1,3,16741.715282008183,543,939,570
975,1,3,16741.725281819323,536,939,546
976,1,3,16741.735281630463,519,938,524
977,1,3,16741.7452814416,534,938,500
978,1,3,16741.75528125274,551,938,476
979,1,3,16741.765281063876,516,938,451
980,1,3,16741.775280875016,533,937,428
981,1,3,16741.785280686156,513,938,403
982,1,3,16741.795280497292,526,938,379
983,1,3,16741.805280308432,516,938,357
984,1,3,16741.815280119572,541,937,337
985,1,3,16741.82527993071,504,937,316
986,1,3,16741.83527974185,527,936,298
987,1,3,16741.845279552985,484,937,282
988,1,3,16741.855279364125,508,937,266
989,1,3,16741.865279175265,486,937,249
990,1,3,16741.8752789864,547,937,234
991,1,3,16741.88527879754,509,938,222
992,1,3,16741.895278608677,534,938,210
993,1,3,16741.905278419817,493,938,195
994,1,3,16741.915278230957,501,939,182
995,1,3,16741.925278042094,496,939,173
996,1,3,16741.935277853234,521,939,164
997,1,3,16741.945277664374,499,939,152
998,1,3,16741.95527747551,495,940,144
999,1,3,16741.96527728665,523,940,137
1000,1,3,16741.975277097787,499,940,128
1001,1,3,16741.985276908927,494,940,119
1002,1,3,16741.995276720067,471,940,113
1003,1,3,16742.005276531203,519,941,108
1004,1,3,16742.015276342343,504,941,98
1005,1,3,16742.025276153483,503,942,94
1006,1,3,16742.03527596462,513,941,90
1007,1,3,16742.04527577576,560,942,84
1008,1,3,16742.055275586896,510,941,83
1009,1,3,16742.065275398036,519,942,77
1010,1,3,16742.075275209176,498,941,79
1011,1,3,16742.085275020312,496,942,77
1012,1,3,16742.095274831452,491,942,79
1013,1,3,16742.10527464259,436,942,76
1014,1,3,16742.11527445373,459,942,81
1015,1,3,16742.12527426487,617,942,79
1016,1,3,16742.135274076005,707,942,84
1017,1,3,16742.145273887145,602,942,84
1018,1,3,16742.155273698285,473,943,88
1019,1,3,16742.16527350942,477,943,91
1020,1,3,16742.17527332056,508,943,93
1021,1,3,16742.185273131698,432,943,98
1022,1,3,16742.195272942838,504,943,98
1023,1,3,16742.205272753978,429,944,105
1024,1,3,16742.215272565114,469,944,112
1025,1,3,16742.225272376254,492,944,114
1026,1,3,16742.235272187394,470,944,123
1027,1,3,16742.24527199853,484,945,129
1028,1,3,16742.25527180967,508,945,134
1029,1,3,16742.265271620807,458,946,144
1030,1,3,16742.275271431947,490,946,148
1031,1,3,16742.285271243087,469,946,159
1032,1,3,16742.295271054223,504,946,166
1033,1,3,16742.305270865363,491,947,175
1034,1,3,16742.3152706765,442,947,188
1035,1,3,16742.32527048764,485,947,197
1036,1,3,16742.33527029878,468,947,210
1037,1,3,16742.345270109916,480,947,217
1038,1,3,16742.355269921056,483,947,230
1039,1,3,16742.365269732196,503,947,237
1040,1,3,16742.375269543332,521,947,249
1041,1,3,16742.385269354472,520,947,256
1042,1,3,16742.39526916561,551,947,269
1043,1,3,16742.40526897675,567,947,278
1044,1,3,16742.41526878789,563,947,289
1045,1,3,16742.425268599025,558,947,299
1046,1,3,16742.435268410165,535,947,310
1047,1,3,16742.445268221305,564,946,320
1048,1,3,16742.45526803244,544,947,332
1049,1,3,16742.46526784358,561,946,343
1050,1,3,16742.475267654718,537,947,354
1051,1,3,16742.485267465858,523,946,366
1052,1,3,16742.495267276998,541,946,376
1053,1,3,16742.505267088134,518,946,387
1054,1,3,16742.515266899274,538,946,396
1055,1,3,16742.52526671041,524,946,408
1056,1,3,16742.53526652155,526,946,417
1057,1,3,16742.54526633269,500,946,429
1058,1,3,16742.555266143827,527,946,439
1059,1,3,16742.565265954967,537,946,449
1060,1,3,16742.575265766107,496,946,459
1061,1,3,16742.585265577243,531,945,468
1062,1,3,16742.595265388383,497,945,477
1063,1,3,16742.60526519952,486,945,484
1064,1,3,16742.61526501066,506,945,493
1065,1,3,16742.6252648218,497,945,499
1066,1,3,16742.635264632936,503,945,504
1067,1,3,16742.645264444076,533,945,508
1068,1,3,16742.655264255216,519,945,512
1069,1,3,16742.665264066352,547,945,513
1070,1,3,16742.675263877492,537,945,514
1071,1,3,16742.68526368863,501,945,514
1072,1,3,16742.69526349977,529,945,513
1073,1,3,16742.70526331091,517,945,513
1074,1,3,16742.715263122045,517,945,512
1075,1,3,16742.725262933185,516,945,511
1076,1,3,16742.735262744325,452,944,511
1077,1,3,16742.74526255546,443,945,510
1078,1,3,16742.7552623666,607,944,510
1079,1,3,16742.765262177738,708,944,508
1080,1,3,16742.775261988878,618,944,509
1081,1,3,16742.785261800018,576,944,509
1082,1,3,16742.795261611154,473,944,510
1083,1,3,16742.805261422294,453,944,510
1084,1,3,16742.81526123343,441,944,510
1085,1,3,16742.82526104457,476,944,511
1086,1,3,16742.83526085571,471,944,511
1087,1,3,16742.845260666847,487,944,512
1088,1,3,16742.855260477987,467,944,514
1089,1,3,16742.865260289127,500,943,515
1090,1,3,16742.875260100263,448,944,517
1091,1,3,16742.885259911403,472,944,519
1092,1,3,16742.89525972254,482,944,522
1093,1,3,16742.90525953368,478,944,525
1094,1,3,16742.91525934482,484,943,528
1095,1,3,16742.925259155956,486,943,531
1096,1,3,16742.935258967096,468,944,536
1097,1,3,16742.945258778236,487,943,542
1098,1,3,16742.955258589373,456,943,547
1099,1,3,16742.965258400513,482,943,554
1100,1,3,16742.97525821165,489,943,559
1101,1,3,16742.98525802279,488,943,566
1102,1,3,16742.99525783393,533,942,573
1103,1,3,16743.005257645065,506,943,582
1104,1,3,16743.015257456205,535,942,590
1105,1,3,16743.02525726734,532,942,600
1106,1,3,16743.03525707848,551,942,611
1107,1,3,16743.04525688962,565,942,621
1108,1,3,16743.055256700758,581,942,632
1109,1,3,16743.065256511898,540,942,643
1110,1,3,16743.075256323038,539,942,654
1111,1,3,16743.085256134174,534,942,666
1112,1,3,16743.095255945314,538,942,679
1113,1,3,16743.10525575645,527,942,694
1114,1,3,16743.11525556759,523,942,707
1115,1,3,16743.12525537873,527,942,722
1116,1,3,16743.135255189867,526,941,736
1117,1,3,16743.145255001007,542,941,749
1118,1,3,16743.155254812147,506,941,761
1119,1,3,16743.165254623284,532,941,773
1120,1,3,16743.175254434424,510,941,786
1121,1,3,16743.18525424556,531,941,799
1122,1,3,16743.1952540567,504,941,811
1123,1,3,16743.20525386784,516,940,824
1124,1,3,16743.215253678976,494,941,835
1125,1,3,16743.225253490116,509,941,845
1126,1,3,16743.235253301253,538,941,856
1127,1,3,16743.245253112393,500,940,864
1128,1,3,16743.255252923533,503,940,872
1129,1,3,16743.26525273467,514,940,880
1130,1,3,16743.27525254581,540,940,888
1131,1,3,16743.28525235695,545,940,895
1132,1,3,16743.295252168085,517,940,903
1133,1,3,16743.305251979225,531,940,910
1134,1,3,16743.31525179036,525,940,916
1135,1,3,16743.3252516015,524,940,922
1136,1,3,16743.33525141264,527,940,928
1137,1,3,16743.345251223778,522,940,934
1138,1,3,16743.35525103492,490,940,939
1139,1,3,16743.36525084606,455,940,944
1140,1,3,16743.375250657195,508,940,948
1141,1,3,16743.385250468335,668,940,953
1142,1,3,16743.39525027947,687,940,957
1143,1,3,16743.40525009061,593,940,961
1144,1,3,16743.41524990175,515,940,964
1145,1,3,16743.425249712887,478,940,968
1146,1,3,16743.435249524027,470,940,971
1147,1,3,16743.445249335164,469,940,973
1148,1,3,16743.455249146304,472,940,975
1149,1,3,16743.465248957444,473,940,975
1150,1,3,16743.47524876858,478,940,975
1151,1,3,16743.48524857972,482,940,973
1152,1,3,16743.49524839086,486,940,971
1153,1,3,16743.505248201996,484,940,967
1154,1,3,16743.515248013136,484,940,963
1155,1,3,16743.525247824273,488,940,959
1156,1,3,16743.535247635413,488,940,953
1157,1,3,16743.545247446553,489,939,947
1158,1,3,16743.55524725769,484,939,940
1159,1,3,16743.56524706883,480,939,933
1160,1,3,16743.57524687997,484,939,927
1161,1,3,16743.585246691106,485,939,922
1162,1,3,16743.595246502246,484,939,917
1163,1,3,16743.605246313382,499,939,913
1164,1,3,16743.615246124522,504,939,908
1165,1,3,16743.625245935662,511,939,903
1166,1,3,16743.6352457468,519,939,899
1167,1,3,16743.64524555794,527,939,895
1168,1,3,16743.655245369075,533,938,891
1169,1,3,16743.665245180215,535,938,889
1170,1,3,16743.675244991355,536,938,888
1171,1,3,16743.68524480249,531,938,888
1172,1,3,16743.69524461363,528,938,888
1173,1,3,16743.70524442477,531,938,891
1174,1,3,16743.715244235907,529,938,896
1175,1,3,16743.725244047047,525,937,901
1176,1,3,16743.735243858184,522,937,907
1177,1,3,16743.745243669324,517,937,914
1178,1,3,16743.755243480464,514,937,920
1179,1,3,16743.7652432916,518,937,926
1180,1,3,16743.77524310274,519,937,931
1181,1,3,16743.78524291388,512,937,936
1182,1,3,16743.795242725017,500,937,942
1183,1,3,16743.805242536157,496,937,946
1184,1,3,16743.815242347293,491,937,947
1185,1,3,16743.825242158433,484,936,948
1186,1,3,16743.835241969573,485,936,950
1187,1,3,16743.84524178071,486,936,952
1188,1,3,16743.85524159185,492,935,955
1189,1,3,16743.865241402986,489,935,960
1190,1,3,16743.875241214126,494,935,965
1191,1,3,16743.885241025266,489,935,969
1192,1,3,16743.895240836402,496,935,973
1193,1,3,16743.905240647542,510,935,976
1194,1,3,16743.915240458682,516,935,979
1195,1,3,16743.92524026982,516,935,982
1196,1,3,16743.93524008096,517,935,984
1197,1,3,16743.945239892095,515,935,986
1198,1,3,16743.955239703235,519,934,988
1199,1,3,16743.965239514375,513,934,990
1200,1,3,16743.97523932551,502,935,992
1201,1,3,16743.98523913665,468,934,993
1202,1,3,16743.99523894779,445,934,993
1203,1,3,16744.005238758928,547,934,994
1204,1,3,16744.015238570068,658,934,996
1205,1,3,16744.025238381204,656,934,998
1206,1,3,16744.035238192344,562,934,999
1207,1,3,16744.045238003484,490,934,1000
1208,1,3,16744.05523781462,464,934,1000
1209,1,3,16744.06523762576,462,934,999
1210,1,3,16744.0752374369,461,934,998
1211,1,3,16744.085237248037,467,934,997
1212,1,3,16744.095237059177,466,934,995
1213,1,3,16744.105236870313,468,934,994
1214,1,3,16744.115236681453,477,933,993
1215,1,3,16744.125236492593,479,934,994
1216,1,3,16744.13523630373,477,933,993
1217,1,3,16744.14523611487,483,934,991
1218,1,3,16744.155235926006,482,933,987
1219,1,3,16744.165235737146,485,934,983
1220,1,3,16744.175235548286,479,934,977
1221,1,3,16744.185235359422,482,934,972
1222,1,3,16744.195235170562,486,934,964
1223,1,3,16744.205234981702,486,934,956
1224,1,3,16744.21523479284,483,934,947
1225,1,3,16744.22523460398,490,934,937
1226,1,3,16744.235234415115,498,934,927
1227,1,3,16744.245234226255,505,933,917
1228,1,3,16744.255234037395,516,934,907
1229,1,3,16744.26523384853,517,933,897
1230,1,3,16744.27523365967,532,933,888
1231,1,3,16744.28523347081,543,933,878
1232,1,3,16744.295233281948,534,933,868
1233,1,3,16744.305233093088,544,932,859
1234,1,3,16744.315232904224,537,932,852
1235,1,3,16744.325232715364,540,932,846
1236,1,3,16744.335232526504,535,931,841
1237,1,3,16744.34523233764,531,930,836
1238,1,3,16744.35523214878,526,930,832
1239,1,3,16744.365231959917,527,929,829
1240,1,3,16744.375231771057,531,928,826
1241,1,3,16744.385231582197,504,928,825
1242,1,3,16744.395231393333,517,927,827
1243,1,3,16744.405231204473,517,927,831
1244,1,3,16744.415231015613,514,926,837
1245,1,3,16744.42523082675,507,926,844
1246,1,3,16744.43523063789,505,926,856
1247,1,3,16744.445230449026,524,925,868
1248,1,3,16744.455230260166,514,925,880
1249,1,3,16744.465230071306,500,924,890
1250,1,3,16744.475229882442,499,925,900
1251,1,3,16744.485229693582,492,925,908
1252,1,3,16744.495229504722,498,924,916
1253,1,3,16744.50522931586,507,924,924
1254,1,3,16744.515229127,502,924,931
1255,1,3,16744.525228938135,506,926,936
1256,1,3,16744.535228749275,509,926,942
1257,1,3,16744.545228560415,517,927,948
1258,1,3,16744.55522837155,522,927,954
1259,1,3,16744.56522818269,525,928,959
1260,1,3,16744.575227993828,533,928,963
1261,1,3,16744.585227804968,522,928,967
1262,1,3,16744.595227616108,525,928,971
1263,1,3,16744.605227427244,504,927,975
1264,1,3,16744.615227238384,478,927,978
1265,1,3,16744.625227049524,445,927,981
1266,1,3,16744.63522686066,540,927,984
1267,1,3,16744.6452266718,679,927,987
1268,1,3,16744.655226482937,688,927,990
1269,1,3,16744.665226294077,587,927,992
1270,1,3,16744.675226105217,494,927,994
1271,1,3,16744.685225916353,465,926,996
1272,1,3,16744.695225727493,471,927,998
1273,1,3,16744.705225538633,484,927,996
1274,1,3,16744.71522534977,492,927,992
1275,1,3,16744.72522516091,454,927,981
1276,1,3,16744.735224972046,467,928,966
1277,1,3,16744.745224783186,492,929,948
1278,1,3,16744.755224594326,494,930,928
1279,1,3,16744.765224405463,489,929,907
1280,1,3,16744.775224216603,477,930,886
1281,1,3,16744.78522402774,477,930,866
1282,1,3,16744.79522383888,471,930,848
1283,1,3,16744.80522365002,479,930,832
1284,1,3,16744.815223461155,474,930,816
1285,1,3,16744.825223272295,480,930,800
1286,1,3,16744.835223083435,470,930,785
1287,1,3,16744.84522289457,460,930,774
1288,1,3,16744.85522270571,449,929,766
1289,1,3,16744.865222516848,473,929,762
1290,1,3,16744.875222327988,527,929,761
1291,1,3,16744.885222139128,480,929,764
1292,1,3,16744.895221950264,519,929,770
1293,1,3,16744.905221761404,510,929,778
1294,1,3,16744.915221572544,533,928,786
1295,1,3,16744.92522138368,537,928,795
1296,1,3,16744.93522119482,551,928,801
1297,1,3,16744.945221005957,560,928,805
1298,1,3,16744.955220817097,567,928,807
1299,1,3,16744.965220628237,533,927,804
1300,1,3,16744.975220439374,607,927,797
1301,1,3,16744.985220250514,495,927,784
1302,1,3,16744.99522006165,536,927,770
1303,1,3,16745.00521987279,482,927,757
1304,1,3,16745.01521968393,493,927,745
1305,1,3,16745.025219495066,494,926,737
1306,1,3,16745.035219306206,494,926,730
1307,1,3,16745.045219117346,517,927,723
1308,1,3,16745.055218928483,505,926,715
1309,1,3,16745.065218739623,477,926,706
1310,1,3,16745.07521855076,470,926,694
1311,1,3,16745.0852183619,524,926,680
1312,1,3,16745.09521817304,528,926,663
1313,1,3,16745.105217984175,510,925,644
1314,1,3,16745.115217795315,510,926,625
1315,1,3,16745.125217606455,524,925,605
1316,1,3,16745.13521741759,521,925,584
1317,1,3,16745.14521722873,524,924,563
1318,1,3,16745.155217039868,538,925,545
1319,1,3,16745.165216851008,546,924,526
1320,1,3,16745.175216662148,591,924,508
1321,1,3,16745.185216473285,521,923,491
1322,1,3,16745.195216284425,500,923,472
1323,1,3,16745.20521609556,502,923,453
1324,1,3,16745.2152159067,521,923,437
1325,1,3,16745.22521571784,513,923,420
1326,1,3,16745.235215528977,472,922,405
1327,1,3,16745.245215340117,436,922,394
1328,1,3,16745.255215151257,600,921,385
1329,1,3,16745.265214962394,750,921,379
1330,1,3,16745.275214773534,695,921,371
1331,1,3,16745.28521458467,561,921,363
1332,1,3,16745.29521439581,493,920,350
1333,1,3,16745.30521420695,468,920,337
1334,1,3,16745.315214018086,467,920,324
1335,1,3,16745.325213829226,461,920,312
1336,1,3,16745.335213640366,466,920,300
1337,1,3,16745.345213451503,461,920,290
1338,1,3,16745.355213262643,466,919,281
1339,1,3,16745.36521307378,471,920,274
1340,1,3,16745.37521288492,467,919,269
1341,1,3,16745.38521269606,472,919,265
1342,1,3,16745.395212507196,469,919,261
1343,1,3,16745.405212318336,470,919,258
1344,1,3,16745.415212129476,469,919,255
1345,1,3,16745.425211940612,464,919,253
1346,1,3,16745.435211751752,462,919,248
1347,1,3,16745.44521156289,460,919,243
1348,1,3,16745.45521137403,464,919,236
1349,1,3,16745.46521118517,469,918,229
1350,1,3,16745.475210996305,478,919,222
1351,1,3,16745.485210807445,487,918,212
1352,1,3,16745.49521061858,486,918,201
1353,1,3,16745.50521042972,504,918,189
1354,1,3,16745.51521024086,518,918,179
1355,1,3,16745.525210051997,536,917,168
1356,1,3,16745.535209863137,539,918,158
1357,1,3,16745.545209674277,546,917,149
1358,1,3,16745.555209485414,548,917,147
1359,1,3,16745.565209296554,544,917,147
1360,1,3,16745.57520910769,540,917,149
1361,1,3,16745.58520891883,540,917,152
1362,1,3,16745.59520872997,540,917,156
1363,1,3,16745.605208541107,532,917,160
1364,1,3,16745.615208352247,529,916,165
1365,1,3,16745.625208163387,523,917,166
1366,1,3,16745.635207974523,517,917,166
1367,1,3,16745.645207785663,516,917,166
1368,1,3,16745.6552075968,513,917,167
1369,1,3,16745.66520740794,510,917,167
1370,1,3,16745.67520721908,512,917,169
1371,1,3,16745.685207030216,514,917,170
1372,1,3,16745.695206841356,512,917,171
1373,1,3,16745.705206652492,505,917,174
1374,1,3,16745.715206463632,500,918,178
1375,1,3,16745.725206274772,499,918,182
1376,1,3,16745.73520608591,497,917,190
1377,1,3,16745.74520589705,498,918,199
1378,1,3,16745.75520570819,493,917,206
1379,1,3,16745.765205519325,498,918,214
1380,1,3,16745.775205330465,502,918,222
1381,1,3,16745.7852051416,509,918,230
1382,1,3,16745.79520495274,524,917,239
1383,1,3,16745.80520476388,527,918,248
1384,1,3,16745.815204575018,527,918,259
1385,1,3,16745.825204386158,526,918,268
1386,1,3,16745.835204197298,526,918,277
1387,1,3,16745.845204008434,519,918,286
1388,1,3,16745.855203819574,509,918,292
1389,1,3,16745.86520363071,479,918,295
1390,1,3,16745.87520344185,437,918,295
1391,1,3,16745.88520325299,465,918,291
1392,1,3,16745.895203064127,695,917,287
1393,1,3,16745.905202875267,716,917,280
1394,1,3,16745.915202686403,611,917,274
1395,1,3,16745.925202497543,526,919,269
1396,1,3,16745.935202308683,470,920,265
1397,1,3,16745.94520211982,455,922,263
1398,1,3,16745.95520193096,451,924,262
1399,1,3,16745.9652017421,449,926,261
1400,1,3,16745.975201553236,455,927,259
1401,1,3,16745.985201364376,464,928,256
1402,1,3,16745.995201175512,467,929,254
1403,1,3,16746.005200986652,468,929,255
1404,1,3,16746.015200797792,473,929,259
1405,1,3,16746.02520060893,471,929,264
1406,1,3,16746.03520042007,470,928,267
1407,1,3,16746.04520023121,473,928,271
1408,1,3,16746.055200042345,476,927,272
1409,1,3,16746.065199853485,469,927,274
1410,1,3,16746.07519966462,468,926,275
1411,1,3,16746.08519947576,463,926,276
1412,1,3,16746.0951992869,462,925,276
1413,1,3,16746.105199098038,463,924,275
1414,1,3,16746.115198909178,473,923,272
1415,1,3,16746.125198720314,472,923,268
1416,1,3,16746.135198531454,492,922,263
1417,1,3,16746.145198342594,500,921,260
1418,1,3,16746.15519815373,526,921,255
1419,1,3,16746.16519796487,529,920,251
1420,1,3,16746.17519777601,534,919,247
1421,1,3,16746.185197587147,544,919,241
1422,1,3,16746.195197398287,547,918,237
1423,1,3,16746.205197209423,554,917,233
1424,1,3,16746.215197020563,553,916,229
1425,1,3,16746.225196831703,547,916,226
1426,1,3,16746.23519664284,513,915,220
1427,1,3,16746.24519645398,535,915,216
1428,1,3,16746.25519626512,523,914,213
1429,1,3,16746.265196076256,553,914,211
1430,1,3,16746.275195887396,518,913,207
1431,1,3,16746.285195698532,518,913,205
1432,1,3,16746.295195509672,519,913,201
1433,1,3,16746.305195320812,514,913,198
1434,1,3,16746.31519513195,525,913,193
1435,1,3,16746.32519494309,517,913,188
1436,1,3,16746.335194754225,502,913,186
1437,1,3,16746.345194565365,511,913,186
1438,1,3,16746.355194376505,502,913,185
1439,1,3,16746.36519418764,516,913,189
1440,1,3,16746.37519399878,508,913,194
1441,1,3,16746.38519380992,504,913,200
1442,1,3,16746.395193621058,513,913,203
1443,1,3,16746.405193432198,517,913,205
1444,1,3,16746.415193243334,525,912,205
1445,1,3,16746.425193054474,532,912,204
1446,1,3,16746.435192865614,530,911,200
1447,1,3,16746.44519267675,533,911,195
1448,1,3,16746.45519248789,531,911,189
1449,1,3,16746.46519229903,532,910,179
1450,1,3,16746.475192110167,529,910,166
1451,1,3,16746.485191921307,515,910,153
1452,1,3,16746.495191732443,472,909,144
1453,1,3,16746.505191543583,436,909,135
1454,1,3,16746.515191354723,519,908,128
1455,1,3,16746.52519116586,767,908,121
1456,1,3,16746.535190977,728,907,115
1457,1,3,16746.54519078814,593,908,108
1458,1,3,16746.555190599276,492,907,104
1459,1,3,16746.565190410416,444,907,102
1460,1,3,16746.575190221552,443,907,107
1461,1,3,16746.585190032692,427,907,113
1462,1,3,16746.595189843832,432,906,122
1463,1,3,16746.60518965497,454,907,131
1464,1,3,16746.61518946611,456,907,141
1465,1,3,16746.625189277245,453,906,154
1466,1,3,16746.635189088385,471,905,170
1467,1,3,16746.645188899525,462,906,183
1468,1,3,16746.65518871066,457,906,191
1469,1,3,16746.6651885218,470,905,200
1470,1,3,16746.67518833294,477,906,211
1471,1,3,16746.685188144078,462,905,218
1472,1,3,16746.695187955218,456,905,223
1473,1,3,16746.705187766354,462,904,224
1474,1,3,16746.715187577494,470,904,223
1475,1,3,16746.725187388634,461,904,221
1476,1,3,16746.73518719977,468,904,212
1477,1,3,16746.74518701091,481,903,201
1478,1,3,16746.75518682205,496,903,187
1479,1,3,16746.765186633187,532,903,176
1480,1,3,16746.775186444327,520,903,167
1481,1,3,16746.785186255463,541,903,157
1482,1,3,16746.795186066603,544,903,148
1483,1,3,16746.805185877743,552,903,140
1484,1,3,16746.81518568888,563,903,135
1485,1,3,16746.82518550002,569,903,135
1486,1,3,16746.835185311156,565,903,136
1487,1,3,16746.845185122296,551,903,135
1488,1,3,16746.855184933436,540,903,131
1489,1,3,16746.865184744573,527,902,127
1490,1,3,16746.875184555713,547,903,120
1491,1,3,16746.885184366853,535,903,112
1492,1,3,16746.89518417799,531,902,104
1493,1,3,16746.90518398913,495,902,98
1494,1,3,16746.915183800265,504,902,91
1495,1,3,16746.925183611405,513,902,86
1496,1,3,16746.935183422545,514,902,83
1497,1,3,16746.94518323368,530,902,83
1498,1,3,16746.95518304482,496,902,83
1499,1,3,16746.96518285596,502,902,85
1500,1,3,16746.975182667098,510,902,86
1501,1,3,16746.985182478238,512,902,85
1502,1,3,16746.995182289374,510,902,85
1503,1,3,16747.005182100515,516,903,84
1504,1,3,16747.015181911655,518,903,82
1505,1,3,16747.02518172279,522,903,83
1506,1,3,16747.03518153393,536,903,84
1507,1,3,16747.045181345067,531,903,86
1508,1,3,16747.055181156207,525,903,94
1509,1,3,16747.065180967347,523,903,102
1510,1,3,16747.075180778484,534,903,110
1511,1,3,16747.085180589624,511,903,117
1512,1,3,16747.095180400764,487,903,128
1513,1,3,16747.1051802119,445,903,141
1514,1,3,16747.11518002304,461,903,153
1515,1,3,16747.125179834176,688,904,162
1516,1,3,16747.135179645316,740,904,170
1517,1,3,16747.145179456456,647,904,185
1518,1,3,16747.155179267593,532,904,196
1519,1,3,16747.165179078733,473,904,207
1520,1,3,16747.175178889873,450,904,216
1521,1,3,16747.18517870101,453,905,230
1522,1,3,16747.19517851215,455,905,242
1523,1,3,16747.205178323286,455,905,253
1524,1,3,16747.215178134426,462,905,265
1525,1,3,16747.225177945566,463,905,278
1526,1,3,16747.235177756702,471,906,292
1527,1,3,16747.245177567842,473,906,306
1528,1,3,16747.25517737898,474,907,319
1529,1,3,16747.26517719012,475,907,331
1530,1,3,16747.27517700126,473,906,344
1531,1,3,16747.285176812395,472,908,354
1532,1,3,16747.295176623535,469,907,364
1533,1,3,16747.305176434675,467,908,373
1534,1,3,16747.31517624581,466,908,380
1535,1,3,16747.32517605695,466,909,388
1536,1,3,16747.335175868087,472,909,396
1537,1,3,16747.345175679227,479,909,404
1538,1,3,16747.355175490367,485,910,409
1539,1,3,16747.365175301504,499,910,415
1540,1,3,16747.375175112644,514,910,421
1541,1,3,16747.385174923784,532,910,424
1542,1,3,16747.39517473492,545,911,428
1543,1,3,16747.40517454606,551,911,432
1544,1,3,16747.415174357197,556,911,434
1545,1,3,16747.425174168337,556,911,436
1546,1,3,16747.435173979477,545,911,436
1547,1,3,16747.445173790613,545,912,440
1548,1,3,16747.455173601753,540,911,441
1549,1,3,16747.46517341289,536,912,445
1550,1,3,16747.47517322403,535,911,448
1551,1,3,16747.48517303517,529,912,450
1552,1,3,16747.495172846306,526,913,454
1553,1,3,16747.505172657446,520,912,457
1554,1,3,16747.515172468586,518,913,462
1555,1,3,16747.525172279722,511,913,466
1556,1,3,16747.535172090862,510,913,470
1557,1,3,16747.545171902,501,913,475
1558,1,3,16747.55517171314,508,913,479
1559,1,3,16747.56517152428,508,913,483
1560,1,3,16747.575171335415,509,914,488
1561,1,3,16747.585171146555,507,914,492
1562,1,3,16747.595170957695,511,914,497
1563,1,3,16747.60517076883,522,914,502
1564,1,3,16747.61517057997,519,914,508
1565,1,3,16747.625170391108,521,914,513
1566,1,3,16747.635170202248,533,914,519
1567,1,3,16747.645170013388,527,915,524
1568,1,3,16747.655169824524,521,914,529
1569,1,3,16747.665169635664,516,914,534
1570,1,3,16747.6751694468,518,915,541
1571,1,3,16747.68516925794,484,915,547
1572,1,3,16747.69516906908,441,915,552
1573,1,3,16747.705168880217,452,915,559
1574,1,3,16747.715168691357,661,915,566
1575,1,3,16747.725168502497,717,915,572
1576,1,3,16747.735168313633,633,915,579
1577,1,3,16747.745168124773,519,915,585
1578,1,3,16747.75516793591,468,915,590
1579,1,3,16747.76516774705,466,915,595
1580,1,3,16747.77516755819,448,915,599
1581,1,3,16747.785167369326,451,915,602
1582,1,3,16747.795167180466,460,915,604
1583,1,3,16747.805166991606,464,915,605
1584,1,3,16747.815166802742,460,915,606
1585,1,3,16747.825166613882,468,916,605
1586,1,3,16747.83516642502,464,916,605
1587,1,3,16747.84516623616,463,916,603
1588,1,3,16747.8551660473,467,916,600
1589,1,3,16747.865165858435,474,916,596
1590,1,3,16747.875165669575,470,916,591
1591,1,3,16747.885165480715,468,917,585
1592,1,3,16747.89516529185,453,916,576
1593,1,3,16747.90516510299,467,916,567
1594,1,3,16747.915164914128,463,916,558
1595,1,3,16747.925164725268,460,917,547
1596,1,3,16747.935164536408,473,917,537
1597,1,3,16747.945164347544,484,917,526
1598,1,3,16747.955164158684,499,916,515
1599,1,3,16747.96516396982,531,917,503
1600,1,3,16747.97516378096,543,917,492
1601,1,3,16747.9851635921,535,917,480
1602,1,3,16747.995163403237,538,917,468
1603,1,3,16748.005163214377,555,918,455
1604,1,3,16748.015163025517,540,917,441
1605,1,3,16748.025162836653,544,918,427
1606,1,3,16748.035162647793,553,918,413
1607,1,3,16748.04516245893,537,918,399
1608,1,3,16748.05516227007,537,918,384
1609,1,3,16748.06516208121,532,918,369
1610,1,3,16748.075161892346,521,919,354
1611,1,3,16748.085161703486,527,919,341
1612,1,3,16748.095161514626,516,919,329
1613,1,3,16748.105161325762,496,919,320
1614,1,3,16748.115161136902,508,919,312
1615,1,3,16748.12516094804,491,919,307
1616,1,3,16748.13516075918,518,920,303
1617,1,3,16748.14516057032,499,920,299
1618,1,3,16748.155160381455,505,920,294
1619,1,3,16748.165160192595,502,920,290
1620,1,3,16748.17516000373,512,920,287
1621,1,3,16748.18515981487,516,920,283
1622,1,3,16748.19515962601,530,920,278
1623,1,3,16748.205159437148,524,921,272
1624,1,3,16748.215159248288,527,920,266
1625,1,3,16748.225159059428,537,921,261
1626,1,3,16748.235158870564,510,921,256
1627,1,3,16748.245158681704,522,921,253
1628,1,3,16748.25515849284,508,921,251
1629,1,3,16748.26515830398,494,921,253
1630,1,3,16748.27515811512,453,921,254
1631,1,3,16748.285157926257,447,922,255
1632,1,3,16748.295157737397,635,922,256
1633,1,3,16748.305157548537,716,922,257
1634,1,3,16748.315157359673,605,922,259
1635,1,3,16748.325157170813,514,922,265
1636,1,3,16748.33515698195,479,923,270
1637,1,3,16748.34515679309,464,923,273
1638,1,3,16748.35515660423,460,923,278
1639,1,3,16748.365156415366,475,924,286
1640,1,3,16748.375156226506,465,923,292
1641,1,3,16748.385156037642,476,924,299
1642,1,3,16748.395155848782,468,924,306
1643,1,3,16748.405155659922,476,924,315
1644,1,3,16748.41515547106,473,924,322
1645,1,3,16748.4251552822,474,924,330
1646,1,3,16748.43515509334,489,924,338
1647,1,3,16748.445154904475,481,925,346
1648,1,3,16748.455154715615,475,925,355
1649,1,3,16748.46515452675,478,925,361
1650,1,3,16748.47515433789,474,925,368
1651,1,3,16748.48515414903,478,926,373
1652,1,3,16748.495153960168,467,925,379
1653,1,3,16748.505153771308,474,926,384
1654,1,3,16748.515153582448,487,926,388
1655,1,3,16748.525153393584,494,926,394
1656,1,3,16748.535153204724,499,925,396
1657,1,3,16748.54515301586,522,926,399
1658,1,3,16748.555152827,552,926,399
1659,1,3,16748.56515263814,545,926,399
1660,1,3,16748.575152449277,551,926,395
1661,1,3,16748.585152260417,540,927,391
1662,1,3,16748.595152071553,541,926,387
1663,1,3,16748.605151882693,548,927,382
1664,1,3,16748.615151693833,544,927,373
1665,1,3,16748.62515150497,535,927,364
1666,1,3,16748.63515131611,530,927,354
1667,1,3,16748.64515112725,524,927,344
1668,1,3,16748.655150938386,522,927,335
1669,1,3,16748.665150749526,526,927,325
1670,1,3,16748.675150560663,519,928,316
1671,1,3,16748.685150371803,503,927,307
1672,1,3,16748.695150182943,507,927,299
1673,1,3,16748.70514999408,506,928,295
1674,1,3,16748.71514980522,509,928,291
1675,1,3,16748.72514961636,509,928,290
1676,1,3,16748.735149427495,510,928,290
1677,1,3,16748.745149238635,505,928,291
1678,1,3,16748.75514904977,516,927,292
1679,1,3,16748.76514886091,515,928,293
1680,1,3,16748.77514867205,528,928,295
1681,1,3,16748.785148483188,532,928,299
1682,1,3,16748.795148294328,530,929,302
1683,1,3,16748.805148105464,524,928,305
1684,1,3,16748.815147916604,519,928,306
1685,1,3,16748.825147727744,525,928,308
1686,1,3,16748.83514753888,508,929,311
1687,1,3,16748.84514735002,479,929,316
1688,1,3,16748.85514716116,443,928,321
1689,1,3,16748.865146972297,503,929,326
1690,1,3,16748.875146783437,681,929,331
1691,1,3,16748.885146594574,693,929,335
1692,1,3,16748.895146405714,583,929,340
1693,1,3,16748.905146216854,504,929,344
1694,1,3,16748.91514602799,474,929,349
1695,1,3,16748.92514583913,468,928,352
1696,1,3,16748.93514565027,469,928,354
1697,1,3,16748.945145461406,467,929,356
1698,1,3,16748.955145272546,469,928,358
1699,1,3,16748.965145083683,472,929,360
1700,1,3,16748.975144894823,476,928,362
1701,1,3,16748.985144705963,481,929,363
1702,1,3,16748.9951445171,477,929,365
1703,1,3,16749.00514432824,481,928,366
1704,1,3,16749.015144139375,483,929,368
1705,1,3,16749.025143950515,483,929,368
1706,1,3,16749.035143761655,480,929,370
1707,1,3,16749.045143572792,479,929,371
1708,1,3,16749.055143383932,479,929,371
1709,1,3,16749.065143195072,481,929,371
1710,1,3,16749.07514300621,479,929,371
1711,1,3,16749.08514281735,490,929,370
1712,1,3,16749.095142628485,495,930,370
1713,1,3,16749.105142439625,503,929,368
1714,1,3,16749.115142250765,515,929,367
1715,1,3,16749.1251420619,529,929,366
1716,1,3,16749.13514187304,537,929,365
1717,1,3,16749.14514168418,546,929,364
1718,1,3,16749.155141495317,542,929,364
1719,1,3,16749.165141306457,545,929,363
1720,1,3,16749.175141117594,542,930,363
1721,1,3,16749.185140928734,538,929,361
1722,1,3,16749.195140739874,534,929,360
1723,1,3,16749.20514055101,530,929,361
1724,1,3,16749.21514036215,525,929,360
1725,1,3,16749.22514017329,523,929,359
1726,1,3,16749.235139984426,518,928,359
1727,1,3,16749.245139795567,517,929,358
1728,1,3,16749.255139606703,513,929,358
1729,1,3,16749.265139417843,512,929,356
1730,1,3,16749.275139228983,505,929,356
1731,1,3,16749.28513904012,501,929,355
1732,1,3,16749.29513885126,503,929,356
1733,1,3,16749.305138662396,505,929,357
1734,1,3,16749.315138473536,504,929,359
1735,1,3,16749.325138284676,504,929,359
1736,1,3,16749.335138095812,505,929,360
1737,1,3,16749.345137906952,508,929,361
1738,1,3,16749.355137718092,520,929,362
1739,1,3,16749.36513752923,522,929,364
1740,1,3,16749.37513734037,520,929,364
1741,1,3,16749.385137151505,519,929,363
1742,1,3,16749.395136962645,518,929,360
1743,1,3,16749.405136773785,513,929,359
1744,1,3,16749.41513658492,512,929,358
1745,1,3,16749.42513639606,488,929,353
1746,1,3,16749.4351362072,451,929,348
1747,1,3,16749.445136018338,435,929,340
1748,1,3,16749.455135829478,621,929,331
1749,1,3,16749.465135640614,722,928,320
1750,1,3,16749.475135451754,631,929,308
1751,1,3,16749.485135262894,521,929,296
1752,1,3,16749.49513507403,470,928,284
1753,1,3,16749.50513488517,463,928,271
1754,1,3,16749.515134696307,463,929,260
1755,1,3,16749.525134507447,461,928,248
1756,1,3,16749.535134318587,464,928,239
1757,1,3,16749.545134129723,470,928,230
1758,1,3,16749.555133940863,466,928,222
1759,1,3,16749.565133752003,470,928,213
1760,1,3,16749.57513356314,471,928,205
1761,1,3,16749.58513337428,478,927,197
1762,1,3,16749.595133185416,478,928,190
1763,1,3,16749.605132996556,483,927,183
1764,1,3,16749.615132807696,466,927,177
1765,1,3,16749.625132618832,471,928,170
1766,1,3,16749.635132429972,473,928,164
1767,1,3,16749.645132241112,478,927,158
1768,1,3,16749.65513205225,486,927,151
1769,1,3,16749.66513186339,468,927,144
1770,1,3,16749.675131674525,477,927,138
1771,1,3,16749.685131485665,493,927,133
1772,1,3,16749.695131296805,515,927,126
1773,1,3,16749.70513110794,517,926,125
1774,1,3,16749.71513091908,525,926,123
1775,1,3,16749.725130730218,526,925,121
1776,1,3,16749.735130541358,541,924,120
1777,1,3,16749.745130352498,544,924,120
1778,1,3,16749.755130163634,551,924,120
1779,1,3,16749.765129974774,548,923,122
1780,1,3,16749.775129785914,519,923,126
1781,1,3,16749.78512959705,521,923,126
1782,1,3,16749.79512940819,526,923,127
1783,1,3,16749.805129219327,538,923,128
1784,1,3,16749.815129030467,526,922,129
1785,1,3,16749.825128841607,519,922,128
1786,1,3,16749.835128652743,545,922,127
1787,1,3,16749.845128463883,511,921,126
1788,1,3,16749.855128275023,505,921,125
1789,1,3,16749.86512808616,497,921,122
1790,1,3,16749.8751278973,506,921,121
1791,1,3,16749.885127708436,509,921,120
1792,1,3,16749.895127519576,519,921,121
1793,1,3,16749.905127330716,520,921,122
1794,1,3,16749.915127141852,500,921,123
1795,1,3,16749.925126952992,517,921,124
1796,1,3,16749.93512676413,496,921,123
1797,1,3,16749.94512657527,507,920,121
1798,1,3,16749.95512638641,519,920,119
1799,1,3,16749.965126197545,515,920,116
1800,1,3,16749.975126008685,539,920,115
1801,1,3,16749.985125819825,531,920,114
1802,1,3,16749.99512563096,522,918,112
1803,1,3,16750.0051254421,530,918,112
1804,1,3,16750.015125253238,521,917,112
1805,1,3,16750.025125064378,528,917,113
1806,1,3,16750.035124875518,520,915,115
1807,1,3,16750.045124686654,462,916,117
1808,1,3,16750.055124497794,436,915,120
1809,1,3,16750.065124308934,543,915,121
1810,1,3,16750.07512412007,707,915,120
1811,1,3,16750.08512393121,718,915,119
1812,1,3,16750.095123742347,571,915,117
1813,1,3,16750.105123553487,496,915,114
1814,1,3,16750.115123364627,456,914,111
1815,1,3,16750.125123175763,463,914,108
1816,1,3,16750.135122986903,470,914,105
1817,1,3,16750.14512279804,465,914,102
1818,1,3,16750.15512260918,468,913,99
1819,1,3,16750.16512242032,462,913,96
1820,1,3,16750.175122231456,470,913,95
1821,1,3,16750.185122042596,475,913,93
1822,1,3,16750.195121853736,476,913,92
1823,1,3,16750.205121664872,482,913,94
1824,1,3,16750.215121476012,484,913,96
1825,1,3,16750.22512128715,482,913,101
1826,1,3,16750.23512109829,503,912,107
1827,1,3,16750.24512090943,453,912,112
1828,1,3,16750.255120720565,470,912,117
1829,1,3,16750.265120531705,475,912,121
1830,1,3,16750.275120342845,479,912,125
1831,1,3,16750.28512015398,487,912,128
1832,1,3,16750.29511996512,498,911,132
1833,1,3,16750.305119776258,486,912,136
1834,1,3,16750.315119587398,513,911,140
1835,1,3,16750.325119398538,519,911,143
1836,1,3,16750.335119209674,534,910,146
1837,1,3,16750.345119020814,540,911,149
1838,1,3,16750.355118831954,543,910,150
1839,1,3,16750.36511864309,545,910,152
1840,1,3,16750.37511845423,540,910,152
1841,1,3,16750.385118265367,536,910,153
1842,1,3,16750.395118076507,556,910,152
1843,1,3,16750.405117887647,519,909,154
1844,1,3,16750.415117698783,527,909,153
1845,1,3,16750.425117509923,515,909,153
1846,1,3,16750.43511732106,519,909,155
1847,1,3,16750.4451171322,525,908,156
1848,1,3,16750.45511694334,553,909,158
1849,1,3,16750.465116754476,507,908,161
1850,1,3,16750.475116565616,499,908,164
1851,1,3,16750.485116376756,516,908,168
1852,1,3,16750.495116187893,518,908,173
1853,1,3,16750.505115999033,502,908,178
1854,1,3,16750.51511581017,500,909,182
1855,1,3,16750.52511562131,524,909,183
1856,1,3,16750.53511543245,515,909,186
1857,1,3,16750.545115243585,504,909,185
1858,1,3,16750.555115054725,518,909,183
1859,1,3,16750.565114865865,523,909,181
1860,1,3,16750.575114677,536,909,179
1861,1,3,16750.58511448814,545,909,177
1862,1,3,16750.595114299278,535,909,178
1863,1,3,16750.605114110418,528,909,180
1864,1,3,16750.615113921558,518,909,183
1865,1,3,16750.625113732694,552,909,183
1866,1,3,16750.635113543834,515,910,184
1867,1,3,16750.64511335497,482,910,182
1868,1,3,16750.65511316611,452,910,182
1869,1,3,16750.66511297725,418,911,182
1870,1,3,16750.675112788387,608,912,181
1871,1,3,16750.685112599527,734,912,181
1872,1,3,16750.695112410667,667,913,182
1873,1,3,16750.705112221804,543,914,183
1874,1,3,16750.715112032944,459,914,185
1875,1,3,16750.72511184408,436,915,190
1876,1,3,16750.73511165522,440,915,196
1877,1,3,16750.74511146636,455,916,205
1878,1,3,16750.755111277496,460,915,212
1879,1,3,16750.765111088636,461,916,221
1880,1,3,16750.775110899776,461,916,228
1881,1,3,16750.785110710913,463,917,237
1882,1,3,16750.795110522053,464,917,245
1883,1,3,16750.80511033319,471,918,252
1884,1,3,16750.81511014433,473,918,260
1885,1,3,16750.82510995547,474,919,268
1886,1,3,16750.835109766605,473,919,275
1887,1,3,16750.845109577745,472,920,284
1888,1,3,16750.855109388882,481,921,292
1889,1,3,16750.865109200022,459,920,302
1890,1,3,16750.875109011162,454,921,314
1891,1,3,16750.8851088223,467,921,328
1892,1,3,16750.89510863344,473,921,345
1893,1,3,16750.90510844458,479,922,365
1894,1,3,16750.915108255715,499,922,385
1895,1,3,16750.925108066855,516,922,403
1896,1,3,16750.93510787799,527,923,420
1897,1,3,16750.94510768913,531,924,433
1898,1,3,16750.95510750027,533,924,444
1899,1,3,16750.965107311407,556,925,453
1900,1,3,16750.975107122547,552,925,459
1901,1,3,16750.985106933687,548,926,463
1902,1,3,16750.995106744824,531,927,468
1903,1,3,16751.005106555964,539,928,474
1904,1,3,16751.0151063671,542,929,477
1905,1,3,16751.02510617824,535,930,481
1906,1,3,16751.03510598938,533,931,484
1907,1,3,16751.045105800516,537,931,486
1908,1,3,16751.055105611656,524,932,487
1909,1,3,16751.065105422793,515,933,487
1910,1,3,16751.075105233933,537,934,487
1911,1,3,16751.085105045073,552,935,488
1912,1,3,16751.09510485621,493,935,490
1913,1,3,16751.10510466735,501,936,490
1914,1,3,16751.11510447849,488,937,492
1915,1,3,16751.125104289626,526,938,493
1916,1,3,16751.135104100766,527,939,492
1917,1,3,16751.145103911902,474,940,491
1918,1,3,16751.155103723042,492,939,488
1919,1,3,16751.165103534182,496,940,486
1920,1,3,16751.17510334532,503,940,483
1921,1,3,16751.18510315646,515,941,483
1922,1,3,16751.1951029676,533,941,482
1923,1,3,16751.205102778735,531,942,483
1924,1,3,16751.215102589875,528,942,487
1925,1,3,16751.22510240101,526,942,494
1926,1,3,16751.23510221215,523,943,501
1927,1,3,16751.24510202329,520,943,507
1928,1,3,16751.255101834427,502,944,515
1929,1,3,16751.265101645567,465,944,521
1930,1,3,16751.275101456704,434,944,528
1931,1,3,16751.285101267844,544,944,534
1932,1,3,16751.295101078984,704,944,540
1933,1,3,16751.30510089012,683,944,546
1934,1,3,16751.31510070126,568,944,551
1935,1,3,16751.3251005124,497,944,557
1936,1,3,16751.335100323537,459,945,562
1937,1,3,16751.345100134677,456,945,568
1938,1,3,16751.355099945813,458,945,575
1939,1,3,16751.365099756953,461,945,582
1940,1,3,16751.375099568093,463,944,588
1941,1,3,16751.38509937923,467,945,595
1942,1,3,16751.39509919037,472,944,600
1943,1,3,16751.40509900151,473,945,604
1944,1,3,16751.415098812646,474,945,608
1945,1,3,16751.425098623786,473,945,610
1946,1,3,16751.435098434922,473,945,610
1947,1,3,16751.445098246062,470,946,610
1948,1,3,16751.455098057202,472,946,607
1949,1,3,16751.46509786834,466,945,604
1950,1,3,16751.47509767948,466,946,598
1951,1,3,16751.485097490615,470,945,591
1952,1,3,16751.495097301755,464,945,582
1953,1,3,16751.505097112895,466,945,574
1954,1,3,16751.51509692403,489,945,562
1955,1,3,16751.52509673517,486,945,550
1956,1,3,16751.53509654631,502,945,536
1957,1,3,16751.545096357448,520,945,522
1958,1,3,16751.555096168588,536,945,510
1959,1,3,16751.565095979724,543,945,497
1960,1,3,16751.575095790864,546,945,487
1961,1,3,16751.585095602004,546,945,477
1962,1,3,16751.59509541314,556,945,469
1963,1,3,16751.60509522428,526,945,463
1964,1,3,16751.61509503542,520,945,457
1965,1,3,16751.625094846557,528,945,454
1966,1,3,16751.635094657697,527,945,454
1967,1,3,16751.645094468833,531,945,454
1968,1,3,16751.655094279973,523,945,455
1969,1,3,16751.665094091113,520,946,455
1970,1,3,16751.67509390225,518,946,455
1971,1,3,16751.68509371339,520,946,455
1972,1,3,16751.69509352453,549,946,454
1973,1,3,16751.705093335666,487,946,453
1974,1,3,16751.715093146806,508,946,454
1975,1,3,16751.725092957942,502,947,454
1976,1,3,16751.735092769082,504,947,454
1977,1,3,16751.745092580222,489,947,455
1978,1,3,16751.75509239136,505,947,456
1979,1,3,16751.7650922025,527,947,458
1980,1,3,16751.775092013635,582,947,459
1981,1,3,16751.785091824775,489,948,463
1982,1,3,16751.795091635915,480,948,464
1983,1,3,16751.80509144705,514,948,465
1984,1,3,16751.81509125819,507,948,465
1985,1,3,16751.82509106933,520,948,465
1986,1,3,16751.835090880468,530,948,465
1987,1,3,16751.845090691608,503,948,466
1988,1,3,16751.855090502744,484,948,467
1989,1,3,16751.865090313884,451,948,468
1990,1,3,16751.875090125024,492,949,470
1991,1,3,16751.88508993616,675,949,473
1992,1,3,16751.8950897473,696,949,475
1993,1,3,16751.90508955844,604,949,479
1994,1,3,16751.915089369577,521,949,481
1995,1,3,16751.925089180717,475,950,483
1996,1,3,16751.935088991853,466,949,483
1997,1,3,16751.945088802993,475,950,482
1998,1,3,16751.955088614133,449,950,480
1999,1,3,16751.96508842527,470,950,477
2000,1,3,16751.97508823641,475,949,473
2001,1,3,16751.985088047546,465,949,470
2002,1,3,16751.995087858686,492,949,467
2003,1,3,16752.005087669826,476,950,462
2004,1,3,16752.015087480962,465,949,460
2005,1,3,16752.025087292102,467,950,458
2006,1,3,16752.035087103242,469,950,456
2007,1,3,16752.04508691438,475,950,456
2008,1,3,16752.05508672552,471,950,456
2009,1,3,16752.065086536655,475,951,460
2010,1,3,16752.075086347795,472,951,464
2011,1,3,16752.085086158935,481,951,470
2012,1,3,16752.09508597007,482,951,476
2013,1,3,16752.10508578121,489,951,481
2014,1,3,16752.11508559235,497,951,489
2015,1,3,16752.125085403488,518,951,497
2016,1,3,16752.135085214628,528,952,505
2017,1,3,16752.145085025764,527,951,515
2018,1,3,16752.155084836904,529,952,524
2019,1,3,16752.165084648044,541,952,531
2020,1,3,16752.17508445918,552,952,537
2021,1,3,16752.18508427032,555,952,542
2022,1,3,16752.195084081457,542,951,545
2023,1,3,16752.205083892597,543,952,549
2024,1,3,16752.215083703737,553,951,551
2025,1,3,16752.225083514873,558,952,554
2026,1,3,16752.235083326013,503,952,556
2027,1,3,16752.245083137153,511,952,555
2028,1,3,16752.25508294829,512,952,554
2029,1,3,16752.26508275943,515,952,551
2030,1,3,16752.275082570566,516,952,548
2031,1,3,16752.285082381706,512,952,545
2032,1,3,16752.295082192846,504,952,544
2033,1,3,16752.305082003983,501,953,544
2034,1,3,16752.315081815123,510,953,547
2035,1,3,16752.325081626263,505,953,549
2036,1,3,16752.3350814374,509,953,554
2037,1,3,16752.34508124854,512,953,558
2038,1,3,16752.355081059675,506,954,563
2039,1,3,16752.365080870815,505,954,567
2040,1,3,16752.375080681955,524,954,571
2041,1,3,16752.38508049309,527,954,575
2042,1,3,16752.39508030423,532,954,580
2043,1,3,16752.405080115368,521,955,584
2044,1,3,16752.415079926508,515,955,589
2045,1,3,16752.425079737648,516,955,595
2046,1,3,16752.435079548784,495,955,599
2047,1,3,16752.445079359924,462,955,604
2048,1,3,16752.455079171064,440,956,608
2049,1,3,16752.4650789822,572,956,614
2050,1,3,16752.47507879334,718,956,618
2051,1,3,16752.485078604477,678,956,623
2052,1,3,16752.495078415617,559,956,629
2053,1,3,16752.505078226757,485,957,634
2054,1,3,16752.515078037894,467,957,639
2055,1,3,16752.525077849034,463,957,643
2056,1,3,16752.535077660174,459,957,647
2057,1,3,16752.54507747131,464,957,652
2058,1,3,16752.55507728245,470,957,655
2059,1,3,16752.565077093586,477,957,661
2060,1,3,16752.575076904726,470,957,664
2061,1,3,16752.585076715866,468,958,669
2062,1,3,16752.595076527003,468,957,672
2063,1,3,16752.605076338143,475,957,675
2064,1,3,16752.61507614928,484,958,678
2065,1,3,16752.62507596042,480,958,680
2066,1,3,16752.63507577156,468,958,682
2067,1,3,16752.645075582695,467,958,685
2068,1,3,16752.655075393835,467,958,687
2069,1,3,16752.665075204975,473,958,688
2070,1,3,16752.67507501611,477,958,690
2071,1,3,16752.68507482725,491,959,692
2072,1,3,16752.695074638388,486,959,695
2073,1,3,16752.70507444953,502,959,696
2074,1,3,16752.71507426067,512,959,697
2075,1,3,16752.725074071805,514,959,699
2076,1,3,16752.735073882945,531,959,699
2077,1,3,16752.745073694085,542,960,699
2078,1,3,16752.75507350522,540,960,697
2079,1,3,16752.76507331636,545,960,696
2080,1,3,16752.775073127497,556,960,693
2081,1,3,16752.785072938637,530,960,691
2082,1,3,16752.795072749777,531,960,687
2083,1,3,16752.805072560914,531,960,683
2084,1,3,16752.815072372054,531,960,676
2085,1,3,16752.825072183194,534,960,670
2086,1,3,16752.83507199433,526,960,662
2087,1,3,16752.84507180547,524,960,654
2088,1,3,16752.855071616606,523,960,646
2089,1,3,16752.865071427746,519,960,639
2090,1,3,16752.875071238886,511,960,633
2091,1,3,16752.885071050023,507,960,627
2092,1,3,16752.895070861163,511,961,622
2093,1,3,16752.9050706723,516,960,617
2094,1,3,16752.91507048344,507,960,613
2095,1,3,16752.92507029458,507,960,609
2096,1,3,16752.935070105716,510,961,606
2097,1,3,16752.945069916856,514,961,601
2098,1,3,16752.955069727996,528,961,598
2099,1,3,16752.965069539132,527,961,595
2100,1,3,16752.975069350272,526,962,592
2101,1,3,16752.98506916141,524,962,590
2102,1,3,16752.99506897255,522,962,588
2103,1,3,16753.00506878369,522,962,587
2104,1,3,16753.015068594825,509,962,594
2105,1,3,16753.025068405965,473,963,609
2106,1,3,16753.035068217105,436,963,632
2107,1,3,16753.04506802824,492,963,653
2108,1,3,16753.05506783938,709,963,671
2109,1,3,16753.065067650517,730,963,685
2110,1,3,16753.075067461657,602,964,695
2111,1,3,16753.085067272797,500,964,703
2112,1,3,16753.095067083934,459,963,707
2113,1,3,16753.105066895074,455,963,709
2114,1,3,16753.11506670621,461,963,708
2115,1,3,16753.12506651735,459,963,707
2116,1,3,16753.13506632849,461,963,706
2117,1,3,16753.145066139627,464,964,705
2118,1,3,16753.155065950767,470,963,702
2119,1,3,16753.165065761907,473,964,699
2120,1,3,16753.175065573043,476,963,695
2121,1,3,16753.185065384183,480,964,691
2122,1,3,16753.19506519532,477,964,687
2123,1,3,16753.20506500646,475,964,686
2124,1,3,16753.2150648176,470,964,686
2125,1,3,16753.225064628736,470,964,690
2126,1,3,16753.235064439876,469,964,698
2127,1,3,16753.245064251016,469,964,706
2128,1,3,16753.255064062152,474,964,714
2129,1,3,16753.265063873292,478,964,720
2130,1,3,16753.27506368443,489,964,722
2131,1,3,16753.28506349557,492,963,720
2132,1,3,16753.29506330671,505,963,716
2133,1,3,16753.305063117845,527,963,708
2134,1,3,16753.315062928985,536,964,702
2135,1,3,16753.32506274012,539,964,695
2136,1,3,16753.33506255126,543,964,692
2137,1,3,16753.3450623624,540,964,693
2138,1,3,16753.355062173538,537,964,697
2139,1,3,16753.365061984678,533,965,705
2140,1,3,16753.375061795818,529,964,715
2141,1,3,16753.385061606954,524,964,725
2142,1,3,16753.395061418094,523,964,735
2143,1,3,16753.40506122923,521,965,744
2144,1,3,16753.41506104037,521,965,754
2145,1,3,16753.42506085151,521,965,764
2146,1,3,16753.435060662647,520,965,773
2147,1,3,16753.445060473787,515,965,781
2148,1,3,16753.455060284927,508,965,788
2149,1,3,16753.465060096063,501,965,796
2150,1,3,16753.475059907203,508,965,804
2151,1,3,16753.48505971834,499,965,812
2152,1,3,16753.49505952948,502,965,819
2153,1,3,16753.50505934062,513,965,826
2154,1,3,16753.515059151756,515,965,831
2155,1,3,16753.525058962896,517,965,835
2156,1,3,16753.535058774032,534,965,839
2157,1,3,16753.545058585172,538,965,842
2158,1,3,16753.555058396312,533,965,846
2159,1,3,16753.56505820745,518,965,850
2160,1,3,16753.57505801859,515,965,854
2161,1,3,16753.58505782973,525,966,857
2162,1,3,16753.595057640865,507,965,858
2163,1,3,16753.605057452005,473,965,856
2164,1,3,16753.61505726314,434,966,855
2165,1,3,16753.62505707428,514,966,853
2166,1,3,16753.63505688542,713,966,854
2167,1,3,16753.645056696558,710,966,855
2168,1,3,16753.655056507698,580,966,856
2169,1,3,16753.665056318838,489,965,857
2170,1,3,16753.675056129974,450,965,858
2171,1,3,16753.685055941114,452,965,859
2172,1,3,16753.69505575225,455,965,858
2173,1,3,16753.70505556339,459,965,858
2174,1,3,16753.71505537453,460,965,856
2175,1,3,16753.725055185667,462,965,854
2176,1,3,16753.735054996807,465,965,852
2177,1,3,16753.745054807943,466,965,850
2178,1,3,16753.755054619083,469,965,848
2179,1,3,16753.765054430223,472,965,847
2180,1,3,16753.77505424136,469,965,846
2181,1,3,16753.7850540525,470,965,845
2182,1,3,16753.79505386364,468,965,844
2183,1,3,16753.805053674776,467,965,844
2184,1,3,16753.815053485916,464,965,846
2185,1,3,16753.825053297052,465,965,848
2186,1,3,16753.835053108192,467,965,851
2187,1,3,16753.845052919332,477,965,854
2188,1,3,16753.85505273047,484,965,859
2189,1,3,16753.86505254161,494,965,863
2190,1,3,16753.87505235275,511,964,867
2191,1,3,16753.885052163885,525,965,871
2192,1,3,16753.895051975025,537,964,873
2193,1,3,16753.90505178616,543,964,874
2194,1,3,16753.9150515973,549,964,874
2195,1,3,16753.92505140844,550,964,872
2196,1,3,16753.935051219578,548,964,868
2197,1,3,16753.945051030718,545,964,863
2198,1,3,16753.955050841854,543,963,856
2199,1,3,16753.965050652994,537,963,848
2200,1,3,16753.975050464134,535,963,840
2201,1,3,16753.98505027527,529,963,832
2202,1,3,16753.99505008641,528,963,823
2203,1,3,16754.00504989755,521,963,814
2204,1,3,16754.015049708687,520,963,807
2205,1,3,16754.025049519827,514,963,799
2206,1,3,16754.035049330963,508,963,794
2207,1,3,16754.045049142103,502,963,789
2208,1,3,16754.055048953243,507,964,785
2209,1,3,16754.06504876438,508,964,783
2210,1,3,16754.07504857552,504,963,781
2211,1,3,16754.08504838666,511,964,779
2212,1,3,16754.095048197796,511,964,776
2213,1,3,16754.105048008936,515,964,774
2214,1,3,16754.115047820073,529,963,770
2215,1,3,16754.125047631213,530,964,767
2216,1,3,16754.135047442353,527,964,763
2217,1,3,16754.14504725349,523,964,759
2218,1,3,16754.15504706463,525,964,754
2219,1,3,16754.16504687577,518,964,750
2220,1,3,16754.175046686905,504,964,745
2221,1,3,16754.185046498045,471,964,741
2222,1,3,16754.19504630918,445,964,736
2223,1,3,16754.20504612032,557,964,731
2224,1,3,16754.21504593146,704,964,727
2225,1,3,16754.225045742598,682,964,722
2226,1,3,16754.235045553738,569,964,718
2227,1,3,16754.245045364874,494,964,713
2228,1,3,16754.255045176014,462,964,709
2229,1,3,16754.265044987154,463,964,704
2230,1,3,16754.27504479829,461,964,700
2231,1,3,16754.28504460943,464,964,697
2232,1,3,16754.29504442057,466,964,694
2233,1,3,16754.305044231707,470,964,691
2234,1,3,16754.315044042847,472,963,690
2235,1,3,16754.325043853984,474,963,688
2236,1,3,16754.335043665124,477,963,686
2237,1,3,16754.345043476264,478,963,683
2238,1,3,16754.3550432874,478,963,681
2239,1,3,16754.36504309854,476,963,679
2240,1,3,16754.37504290968,474,962,676
2241,1,3,16754.385042720816,472,962,674
2242,1,3,16754.395042531956,472,962,671
2243,1,3,16754.405042343093,472,962,667
2244,1,3,16754.415042154233,474,962,663
2245,1,3,16754.425041965373,482,962,659
2246,1,3,16754.43504177651,488,963,655
2247,1,3,16754.44504158765,496,962,650
2248,1,3,16754.455041398785,512,962,645
2249,1,3,16754.465041209925,528,963,640
2250,1,3,16754.475041021065,540,963,635
2251,1,3,16754.4850408322,547,963,630
2252,1,3,16754.49504064334,549,963,625
2253,1,3,16754.50504045448,550,963,620
2254,1,3,16754.515040265618,550,963,615
2255,1,3,16754.525040076758,543,963,610
2256,1,3,16754.535039887895,540,963,606
2257,1,3,16754.545039699035,535,963,601
2258,1,3,16754.555039510175,528,963,596
2259,1,3,16754.56503932131,527,963,591
2260,1,3,16754.57503913245,522,963,587
2261,1,3,16754.58503894359,519,963,583
2262,1,3,16754.595038754727,515,963,577
2263,1,3,16754.605038565867,507,963,573
2264,1,3,16754.615038377004,500,963,569
2265,1,3,16754.625038188144,507,963,565
2266,1,3,16754.635037999284,506,963,560
2267,1,3,16754.64503781042,502,963,557
2268,1,3,16754.65503762156,505,963,552
2269,1,3,16754.665037432696,510,963,548
2270,1,3,16754.675037243836,512,963,544
2271,1,3,16754.685037054976,526,963,539
2272,1,3,16754.695036866113,529,963,535
2273,1,3,16754.705036677253,527,963,528
2274,1,3,16754.715036488393,526,963,524
2275,1,3,16754.72503629953,523,963,518
2276,1,3,16754.73503611067,518,963,513
2277,1,3,16754.745035921806,512,963,506
2278,1,3,16754.755035732946,482,963,500
2279,1,3,16754.765035544086,448,963,495
2280,1,3,16754.775035355222,484,963,489
2281,1,3,16754.785035166362,671,963,484
2282,1,3,16754.795034977502,695,963,479
2283,1,3,16754.80503478864,602,963,474
2284,1,3,16754.81503459978,512,963,469
2285,1,3,16754.825034410915,468,963,465
2286,1,3,16754.835034222055,460,963,460
2287,1,3,16754.845034033195,463,963,455
2288,1,3,16754.85503384433,463,963,449
2289,1,3,16754.86503365547,468,963,447
2290,1,3,16754.875033466607,470,963,443
2291,1,3,16754.885033277747,473,963,439
2292,1,3,16754.895033088887,476,962,435
2293,1,3,16754.905032900024,478,963,433
2294,1,3,16754.915032711164,476,963,429
2295,1,3,16754.925032522304,477,963,426
2296,1,3,16754.93503233344,475,963,423
2297,1,3,16754.94503214458,479,962,421
2298,1,3,16754.955031955717,475,963,418
2299,1,3,16754.965031766857,475,963,415
2300,1,3,16754.975031577997,472,962,411
2301,1,3,16754.985031389133,475,962,409
2302,1,3,16754.995031200273,480,962,406
2303,1,3,16755.005031011413,486,962,403
2304,1,3,16755.01503082255,494,962,401
2305,1,3,16755.02503063369,510,962,397
2306,1,3,16755.035030444826,521,962,394
2307,1,3,16755.045030255966,535,962,390
2308,1,3,16755.055030067106,543,962,386
2309,1,3,16755.065029878242,545,962,381
2310,1,3,16755.075029689382,545,962,376
2311,1,3,16755.08502950052,543,961,371
2312,1,3,16755.09502931166,540,961,365
2313,1,3,16755.1050291228,537,961,361
2314,1,3,16755.115028933935,532,961,352
2315,1,3,16755.125028745075,529,961,347
2316,1,3,16755.135028556215,526,961,339
2317,1,3,16755.14502836735,518,961,331
2318,1,3,16755.15502817849,519,961,323
2319,1,3,16755.165027989628,515,961,317
2320,1,3,16755.175027800768,510,961,309
2321,1,3,16755.185027611908,503,961,303
2322,1,3,16755.195027423044,500,961,295
2323,1,3,16755.205027234184,502,961,290
2324,1,3,16755.215027045324,507,961,284
2325,1,3,16755.22502685646,502,961,277
2326,1,3,16755.2350266676,504,961,275
2327,1,3,16755.245026478737,511,960,269
2328,1,3,16755.255026289877,510,960,269
2329,1,3,16755.265026101017,524,961,267
2330,1,3,16755.275025912153,530,960,264
2331,1,3,16755.285025723293,528,960,265
2332,1,3,16755.29502553443,525,961,262
2333,1,3,16755.30502534557,526,960,263
2334,1,3,16755.31502515671,519,960,263
2335,1,3,16755.325024967846,513,961,259
2336,1,3,16755.335024778986,491,960,259
2337,1,3,16755.345024590126,452,960,258
2338,1,3,16755.355024401262,445,960,255
2339,1,3,16755.365024212402,636,960,255
2340,1,3,16755.37502402354,713,960,254
2341,1,3,16755.38502383468,628,960,251
2342,1,3,16755.39502364582,523,960,254
2343,1,3,16755.405023456955,472,960,252
2344,1,3,16755.415023268095,463,959,254
2345,1,3,16755.425023079235,463,959,255
2346,1,3,16755.43502289037,463,959,254
2347,1,3,16755.44502270151,466,959,256
2348,1,3,16755.455022512648,470,959,255
2349,1,3,16755.465022323788,473,959,259
2350,1,3,16755.475022134928,477,959,261
2351,1,3,16755.485021946064,477,958,263
2352,1,3,16755.495021757204,477,958,267
2353,1,3,16755.505021568344,479,959,272
2354,1,3,16755.51502137948,478,958,275
2355,1,3,16755.52502119062,477,959,278
2356,1,3,16755.535021001757,476,958,284
2357,1,3,16755.545020812897,476,959,288
2358,1,3,16755.555020624037,475,958,288
2359,1,3,16755.565020435173,476,958,292
2360,1,3,16755.575020246313,479,959,293
2361,1,3,16755.58502005745,487,958,291
2362,1,3,16755.59501986859,495,959,292
2363,1,3,16755.60501967973,505,959,293
2364,1,3,16755.615019490866,523,958,291
2365,1,3,16755.625019302006,526,958,291
2366,1,3,16755.635019113146,532,958,291
2367,1,3,16755.645018924282,537,958,289
2368,1,3,16755.655018735422,539,958,290
2369,1,3,16755.66501854656,537,958,290
2370,1,3,16755.6750183577,537,958,291
2371,1,3,16755.68501816884,534,958,288
2372,1,3,16755.695017979975,529,958,292
2373,1,3,16755.705017791115,528,958,291
2374,1,3,16755.715017602255,524,958,294
2375,1,3,16755.72501741339,520,958,295
2376,1,3,16755.73501722453,519,958,295
2377,1,3,16755.745017035668,516,958,299
2378,1,3,16755.755016846808,514,958,299
2379,1,3,16755.765016657948,513,958,300
2380,1,3,16755.775016469084,516,958,304
2381,1,3,16755.785016280224,510,958,307
2382,1,3,16755.79501609136,502,958,310
2383,1,3,16755.8050159025,502,958,312
2384,1,3,16755.81501571364,507,958,317
2385,1,3,16755.825015524777,504,958,321
2386,1,3,16755.835015335917,502,957,323
2387,1,3,16755.845015147057,507,957,328
2388,1,3,16755.855014958193,507,957,331
2389,1,3,16755.865014769333,512,957,335
2390,1,3,16755.87501458047,523,957,338
2391,1,3,16755.88501439161,529,957,339
2392,1,3,16755.89501420275,528,957,342
2393,1,3,16755.905014013886,524,957,344
2394,1,3,16755.915013825026,521,957,348
2395,1,3,16755.925013636166,522,957,351
2396,1,3,16755.935013447302,508,957,353
2397,1,3,16755.945013258442,478,956,356
2398,1,3,16755.95501306958,437,957,361
2399,1,3,16755.96501288072,515,957,363
2400,1,3,16755.97501269186,700,956,365
2401,1,3,16755.985012502995,696,956,369
2402,1,3,16755.995012314135,582,956,373
2403,1,3,16756.00501212527,515,956,376
2404,1,3,16756.01501193641,465,956,378
2405,1,3,16756.02501174755,459,956,382
2406,1,3,16756.035011558688,460,956,384
2407,1,3,16756.045011369828,459,956,386
2408,1,3,16756.055011180968,461,956,391
2409,1,3,16756.065010992104,472,956,396
2410,1,3,16756.075010803244,475,956,401
2411,1,3,16756.08501061438,477,956,406
2412,1,3,16756.09501042552,480,956,411
2413,1,3,16756.10501023666,481,956,416
2414,1,3,16756.115010047797,483,956,420
2415,1,3,16756.125009858937,482,956,426
2416,1,3,16756.135009670077,481,956,430
2417,1,3,16756.145009481213,478,956,433
2418,1,3,16756.155009292353,475,955,434
2419,1,3,16756.16500910349,476,955,435
2420,1,3,16756.17500891463,481,956,435
2421,1,3,16756.18500872577,486,956,432
2422,1,3,16756.195008536906,490,955,430
2423,1,3,16756.205008348046,506,955,429
2424,1,3,16756.215008159183,509,955,428
2425,1,3,16756.225007970323,513,955,427
2426,1,3,16756.235007781463,531,955,428
2427,1,3,16756.2450075926,538,955,430
2428,1,3,16756.25500740374,541,954,431
2429,1,3,16756.26500721488,543,954,434
2430,1,3,16756.275007026015,539,954,438
2431,1,3,16756.285006837155,536,954,440
2432,1,3,16756.29500664829,534,954,443
2433,1,3,16756.30500645943,527,953,445
2434,1,3,16756.31500627057,528,953,446
2435,1,3,16756.325006081708,526,953,446
2436,1,3,16756.335005892848,523,953,444
2437,1,3,16756.345005703988,519,953,440
2438,1,3,16756.355005515125,518,953,435
2439,1,3,16756.365005326265,531,953,431
2440,1,3,16756.3750051374,521,952,426
2441,1,3,16756.38500494854,518,953,422
2442,1,3,16756.39500475968,519,952,419
2443,1,3,16756.405004570817,514,952,417
2444,1,3,16756.415004381957,500,952,415
2445,1,3,16756.425004193094,510,952,416
2446,1,3,16756.435004004234,507,952,415
2447,1,3,16756.445003815374,510,952,414
2448,1,3,16756.45500362651,509,952,415
2449,1,3,16756.46500343765,504,952,414
2450,1,3,16756.47500324879,498,952,415
2451,1,3,16756.485003059926,501,952,415
2452,1,3,16756.495002871066,499,951,417
2453,1,3,16756.505002682203,495,951,420
2454,1,3,16756.515002493343,500,951,423
2455,1,3,16756.525002304483,503,951,426
2456,1,3,16756.53500211562,508,950,431
2457,1,3,16756.54500192676,524,951,435
2458,1,3,16756.5550017379,525,951,439
2459,1,3,16756.565001549036,523,951,444
2460,1,3,16756.575001360176,524,950,447
2461,1,3,16756.585001171312,516,950,451
2462,1,3,16756.595000982452,518,950,454
2463,1,3,16756.605000793592,503,950,457
2464,1,3,16756.61500060473,472,950,460
2465,1,3,16756.62500041587,429,950,464
2466,1,3,16756.635000227005,515,950,467
2467,1,3,16756.645000038145,700,949,471
2468,1,3,16756.654999849285,697,949,473
2469,1,3,16756.66499966042,576,948,477
2470,1,3,16756.67499947156,492,949,481
2471,1,3,16756.6849992827,463,948,483
2472,1,3,16756.694999093837,465,948,487
2473,1,3,16756.704998904977,457,948,491
2474,1,3,16756.714998716114,462,948,493
2475,1,3,16756.724998527254,467,948,496
2476,1,3,16756.734998338394,472,948,499
2477,1,3,16756.74499814953,476,947,502
2478,1,3,16756.75499796067,476,948,505
2479,1,3,16756.76499777181,481,947,507
2480,1,3,16756.774997582947,481,947,510
2481,1,3,16756.784997394087,481,947,513
2482,1,3,16756.794997205223,476,947,516
2483,1,3,16756.804997016363,476,947,518
2484,1,3,16756.814996827503,476,947,521
2485,1,3,16756.82499663864,475,947,522
2486,1,3,16756.83499644978,476,947,525
2487,1,3,16756.84499626092,481,947,526
2488,1,3,16756.854996072056,482,947,527
2489,1,3,16756.864995883196,489,946,527
2490,1,3,16756.874995694332,496,946,527
2491,1,3,16756.884995505472,507,946,527
2492,1,3,16756.894995316612,519,946,526
2493,1,3,16756.90499512775,531,947,525
2494,1,3,16756.91499493889,550,946,523
2495,1,3,16756.924994750025,553,946,522
2496,1,3,16756.934994561165,539,946,520
2497,1,3,16756.944994372305,540,946,519
2498,1,3,16756.95499418344,539,946,518
2499,1,3,16756.96499399458,536,946,516
2500,1,3,16756.97499380572,529,946,515
2501,1,3,16756.984993616858,528,946,513
2502,1,3,16756.994993427998,528,946,512
2503,1,3,16757.004993239134,523,945,510
2504,1,3,16757.014993050274,522,945,510
2505,1,3,16757.024992861414,522,945,511
2506,1,3,16757.03499267255,518,945,512
2507,1,3,16757.04499248369,516,945,513
2508,1,3,16757.05499229483,515,945,516
2509,1,3,16757.064992105967,516,945,519
2510,1,3,16757.074991917107,514,945,521
2511,1,3,16757.084991728243,515,945,524
2512,1,3,16757.094991539383,516,944,524
2513,1,3,16757.104991350523,518,944,526
2514,1,3,16757.11499116166,516,944,526
2515,1,3,16757.1249909728,514,944,525
2516,1,3,16757.134990783936,514,944,524
2517,1,3,16757.144990595076,513,944,522
2518,1,3,16757.154990406216,512,944,521
2519,1,3,16757.164990217352,504,944,519
2520,1,3,16757.174990028492,500,944,518
2521,1,3,16757.184989839632,503,944,515
2522,1,3,16757.19498965077,504,944,511
2523,1,3,16757.20498946191,496,944,504
2524,1,3,16757.214989273045,502,944,497
2525,1,3,16757.224989084185,502,944,489
2526,1,3,16757.234988895325,509,944,481
2527,1,3,16757.24498870646,526,944,472
2528,1,3,16757.2549885176,525,944,466
2529,1,3,16757.26498832874,527,944,461
2530,1,3,16757.274988139878,525,944,456
2531,1,3,16757.284987951018,523,943,450
2532,1,3,16757.294987762154,517,943,445
2533,1,3,16757.304987573294,503,943,439
2534,1,3,16757.314987384434,473,943,432
2535,1,3,16757.32498719557,450,943,426
2536,1,3,16757.33498700671,528,943,419
2537,1,3,16757.344986817847,712,943,412
2538,1,3,16757.354986628987,723,943,406
2539,1,3,16757.364986440127,562,942,399
2540,1,3,16757.374986251263,478,943,394
2541,1,3,16757.384986062403,455,942,390
2542,1,3,16757.394985873543,458,942,387
2543,1,3,16757.40498568468,462,942,385
2544,1,3,16757.41498549582,467,942,386
2545,1,3,16757.424985306956,471,942,387
2546,1,3,16757.434985118096,471,942,390
2547,1,3,16757.444984929236,475,942,394
2548,1,3,16757.454984740372,482,942,396
2549,1,3,16757.464984551512,481,942,398
2550,1,3,16757.474984362652,487,942,399
2551,1,3,16757.48498417379,504,942,398
2552,1,3,16757.49498398493,451,942,398
2553,1,3,16757.504983796065,464,942,396
2554,1,3,16757.514983607205,475,942,395
2555,1,3,16757.524983418345,479,942,395
2556,1,3,16757.53498322948,469,942,394
2557,1,3,16757.54498304062,472,941,397
2558,1,3,16757.554982851758,479,941,401
2559,1,3,16757.564982662898,474,941,406
2560,1,3,16757.574982474038,480,941,412
2561,1,3,16757.584982285174,502,941,421
2562,1,3,16757.594982096314,514,941,429
2563,1,3,16757.604981907454,516,941,438
2564,1,3,16757.61498171859,520,941,444
2565,1,3,16757.62498152973,537,941,448
2566,1,3,16757.634981340867,550,941,450
2567,1,3,16757.644981152007,540,940,447
2568,1,3,16757.654980963147,544,940,440
2569,1,3,16757.664980774283,543,940,430
2570,1,3,16757.674980585423,542,939,420
2571,1,3,16757.684980396563,546,938,411
2572,1,3,16757.6949802077,520,937,406
2573,1,3,16757.70498001884,534,936,405
2574,1,3,16757.714979829976,529,936,412
2575,1,3,16757.724979641116,525,935,423
2576,1,3,16757.734979452256,527,935,438
2577,1,3,16757.744979263392,523,935,456
2578,1,3,16757.754979074532,514,935,474
2579,1,3,16757.76497888567,509,935,491
2580,1,3,16757.77497869681,517,935,509
2581,1,3,16757.78497850795,511,935,525
2582,1,3,16757.794978319085,521,934,540
2583,1,3,16757.804978130225,512,934,552
2584,1,3,16757.814977941365,526,934,561
2585,1,3,16757.8249777525,504,934,568
2586,1,3,16757.83497756364,506,934,573
2587,1,3,16757.844977374778,508,934,578
2588,1,3,16757.854977185918,498,933,585
2589,1,3,16757.864976997058,500,933,593
2590,1,3,16757.874976808194,499,934,602
2591,1,3,16757.884976619334,501,933,611
2592,1,3,16757.894976430474,521,934,621
2593,1,3,16757.90497624161,520,934,632
2594,1,3,16757.91497605275,506,933,641
2595,1,3,16757.924975863887,508,933,650
2596,1,3,16757.934975675027,503,933,659
2597,1,3,16757.944975486167,515,933,666
2598,1,3,16757.954975297303,501,932,673
2599,1,3,16757.964975108443,485,932,679
2600,1,3,16757.974974919583,443,932,684
2601,1,3,16757.98497473072,486,932,688
2602,1,3,16757.99497454186,663,932,688
2603,1,3,16758.004974352996,668,932,687
2604,1,3,16758.014974164136,596,932,684
2605,1,3,16758.024973975276,517,932,679
2606,1,3,16758.034973786413,476,932,674
2607,1,3,16758.044973597553,455,932,669
2608,1,3,16758.05497340869,465,932,663
2609,1,3,16758.06497321983,488,932,656
2610,1,3,16758.07497303097,474,932,650
2611,1,3,16758.084972842105,478,932,645
2612,1,3,16758.094972653245,492,932,642
2613,1,3,16758.104972464385,466,933,640
2614,1,3,16758.11497227552,476,932,642
2615,1,3,16758.12497208666,485,932,645
2616,1,3,16758.134971897798,468,932,650
2617,1,3,16758.144971708938,492,933,657
2618,1,3,16758.154971520078,481,932,666
2619,1,3,16758.164971331214,469,931,679
2620,1,3,16758.174971142354,478,930,694
2621,1,3,16758.184970953494,477,931,711
2622,1,3,16758.19497076463,495,932,728
2623,1,3,16758.20497057577,467,932,746
2624,1,3,16758.214970386907,494,934,762
2625,1,3,16758.224970198047,498,935,777
2626,1,3,16758.234970009187,502,936,791
2627,1,3,16758.244969820324,504,937,805
2628,1,3,16758.254969631464,540,939,817
2629,1,3,16758.2649694426,530,940,829
2630,1,3,16758.27496925374,522,942,840
2631,1,3,16758.28496906488,517,943,849
2632,1,3,16758.294968876016,556,945,856
2633,1,3,16758.304968687156,542,946,866
2634,1,3,16758.314968498296,557,948,875
2635,1,3,16758.324968309433,531,949,883
2636,1,3,16758.334968120573,524,950,892
2637,1,3,16758.34496793171,517,952,899
2638,1,3,16758.35496774285,536,953,907
2639,1,3,16758.36496755399,501,955,913
2640,1,3,16758.374967365125,563,956,920
2641,1,3,16758.384967176265,503,958,926
2642,1,3,16758.394966987405,570,959,931
2643,1,3,16758.404966798542,563,960,936
2644,1,3,16758.414966609682,485,961,942
2645,1,3,16758.42496642082,470,961,946
2646,1,3,16758.43496623196,540,962,950
2647,1,3,16758.4449660431,521,963,954
2648,1,3,16758.454965854235,504,964,957
2649,1,3,16758.464965665375,519,965,958
2650,1,3,16758.47496547651,531,965,957
2651,1,3,16758.48496528765,504,966,953
2652,1,3,16758.49496509879,521,966,949
2653,1,3,16758.504964909927,553,965,944
2654,1,3,16758.514964721067,515,965,938
2655,1,3,16758.524964532207,512,964,931
2656,1,3,16758.534964343344,500,964,922
2657,1,3,16758.544964154484,515,965,913
2658,1,3,16758.55496396562,500,964,906
2659,1,3,16758.56496377676,476,964,903
2660,1,3,16758.5749635879,469,964,902
2661,1,3,16758.584963399036,406,964,902
2662,1,3,16758.594963210177,406,964,899
2663,1,3,16758.604963021317,556,963,892
2664,1,3,16758.614962832453,634,963,878
2665,1,3,16758.624962643593,563,963,857
2666,1,3,16758.63496245473,496,963,832
2667,1,3,16758.64496226587,429,963,806
2668,1,3,16758.65496207701,410,962,778
2669,1,3,16758.664961888146,406,962,753
2670,1,3,16758.674961699286,445,963,728
2671,1,3,16758.684961510422,478,963,703
2672,1,3,16758.694961321562,519,962,679
2673,1,3,16758.704961132702,519,962,657
2674,1,3,16758.71496094384,521,962,637
2675,1,3,16758.72496075498,530,962,619
2676,1,3,16758.73496056612,522,962,602
2677,1,3,16758.744960377255,522,962,585
2678,1,3,16758.754960188395,519,962,569
2679,1,3,16758.76495999953,516,961,554
2680,1,3,16758.77495981067,512,961,537
2681,1,3,16758.78495962181,522,962,517
2682,1,3,16758.794959432948,514,961,496
2683,1,3,16758.804959244088,518,961,471
2684,1,3,16758.814959055228,505,961,444
2685,1,3,16758.824958866364,509,960,417
2686,1,3,16758.834958677504,515,960,393
2687,1,3,16758.84495848864,503,960,370
2688,1,3,16758.85495829978,536,960,348
2689,1,3,16758.86495811092,548,960,332
2690,1,3,16758.874957922057,551,960,318
2691,1,3,16758.884957733197,560,959,309
2692,1,3,16758.894957544333,565,959,302
2693,1,3,16758.904957355473,556,959,298
2694,1,3,16758.914957166613,550,959,296
2695,1,3,16758.92495697775,547,959,294
2696,1,3,16758.93495678889,560,959,292
2697,1,3,16758.94495660003,543,959,282
2698,1,3,16758.954956411166,518,959,271
2699,1,3,16758.964956222306,505,960,258
2700,1,3,16758.974956033442,504,959,247
2701,1,3,16758.984955844582,490,958,243
2702,1,3,16758.994955655722,491,958,243
2703,1,3,16759.00495546686,511,958,247
2704,1,3,16759.014955278,505,958,249
2705,1,3,16759.02495508914,479,957,253
2706,1,3,16759.034954900275,468,957,249
2707,1,3,16759.044954711415,488,957,248
2708,1,3,16759.05495452255,494,957,243
2709,1,3,16759.06495433369,503,957,236
2710,1,3,16759.07495414483,515,957,232
2711,1,3,16759.084953955968,520,957,225
2712,1,3,16759.094953767108,533,957,214
2713,1,3,16759.104953578244,528,957,206
2714,1,3,16759.114953389384,519,956,195
2715,1,3,16759.124953200524,529,956,191
2716,1,3,16759.13495301166,521,956,187
2717,1,3,16759.1449528228,502,956,185
2718,1,3,16759.15495263394,511,956,187
2719,1,3,16759.164952445077,484,956,185
2720,1,3,16759.174952256217,451,956,179
2721,1,3,16759.184952067353,427,955,172
2722,1,3,16759.194951878493,602,955,166
2723,1,3,16759.204951689633,707,955,156
2724,1,3,16759.21495150077,657,955,147
2725,1,3,16759.22495131191,558,954,137
2726,1,3,16759.23495112305,494,954,130
2727,1,3,16759.244950934186,464,954,129
2728,1,3,16759.254950745326,440,954,135
2729,1,3,16759.264950556462,448,953,142
2730,1,3,16759.274950367602,465,953,154
2731,1,3,16759.284950178742,478,953,162
2732,1,3,16759.29494998988,472,953,172
2733,1,3,16759.30494980102,483,953,181
2734,1,3,16759.31494961216,464,952,183
2735,1,3,16759.324949423295,487,952,187
2736,1,3,16759.334949234435,468,953,191
2737,1,3,16759.34494904557,443,953,189
2738,1,3,16759.35494885671,462,953,190
2739,1,3,16759.36494866785,475,953,194
2740,1,3,16759.374948478988,462,953,194
2741,1,3,16759.384948290128,476,953,203
2742,1,3,16759.394948101264,451,953,207
2743,1,3,16759.404947912404,496,953,217
2744,1,3,16759.414947723544,456,953,224
2745,1,3,16759.42494753468,477,953,231
2746,1,3,16759.43494734582,496,953,238
2747,1,3,16759.44494715696,513,954,241
2748,1,3,16759.454946968097,524,954,239
2749,1,3,16759.464946779237,542,954,237
2750,1,3,16759.474946590373,544,955,237
2751,1,3,16759.484946401513,552,955,232
2752,1,3,16759.494946212653,553,955,225
2753,1,3,16759.50494602379,554,955,224
2754,1,3,16759.51494583493,545,955,218
2755,1,3,16759.52494564607,543,955,218
2756,1,3,16759.534945457206,542,955,217
2757,1,3,16759.544945268346,538,955,224
2758,1,3,16759.554945079482,533,955,230
2759,1,3,16759.564944890622,521,955,236
2760,1,3,16759.574944701762,521,956,244
2761,1,3,16759.5849445129,520,956,249
2762,1,3,16759.59494432404,522,956,260
2763,1,3,16759.604944135175,519,957,268
2764,1,3,16759.614943946315,519,957,280
2765,1,3,16759.624943757455,516,958,294
2766,1,3,16759.63494356859,504,959,308
2767,1,3,16759.64494337973,497,959,327
2768,1,3,16759.65494319087,496,960,345
2769,1,3,16759.664943002008,505,960,367
2770,1,3,16759.674942813148,502,961,385
2771,1,3,16759.684942624284,503,961,406
2772,1,3,16759.694942435424,509,962,424
2773,1,3,16759.704942246564,506,962,442
2774,1,3,16759.7149420577,517,962,458
2775,1,3,16759.72494186884,528,962,475
2776,1,3,16759.73494167998,528,963,491
2777,1,3,16759.744941491117,528,963,506
2778,1,3,16759.754941302257,523,963,521
2779,1,3,16759.764941113393,521,963,535
2780,1,3,16759.774940924533,516,964,547
2781,1,3,16759.784940735673,491,964,558
2782,1,3,16759.79494054681,445,964,565
2783,1,3,16759.80494035795,419,964,571
2784,1,3,16759.814940169086,610,965,573
2785,1,3,16759.824939980226,753,965,574
2786,1,3,16759.834939791366,690,965,571
2787,1,3,16759.844939602503,560,965,567
2788,1,3,16759.854939413643,483,965,562
2789,1,3,16759.864939224783,444,966,557
2790,1,3,16759.87493903592,443,966,552
2791,1,3,16759.88493884706,455,966,548
2792,1,3,16759.894938658195,446,967,545
2793,1,3,16759.904938469335,448,967,541
2794,1,3,16759.914938280475,458,968,538
2795,1,3,16759.92493809161,462,968,532
2796,1,3,16759.93493790275,466,969,527
2797,1,3,16759.94493771389,477,969,521
2798,1,3,16759.954937525028,481,970,515
2799,1,3,16759.964937336168,474,970,507
2800,1,3,16759.974937147304,478,971,499
2801,1,3,16759.984936958444,464,971,491
2802,1,3,16759.994936769584,445,972,483
2803,1,3,16760.00493658072,462,972,476
2804,1,3,16760.01493639186,477,971,469
2805,1,3,16760.024936202997,470,971,464
2806,1,3,16760.034936014137,473,970,460
2807,1,3,16760.044935825277,480,970,455
2808,1,3,16760.054935636414,491,969,449
2809,1,3,16760.064935447554,510,969,445
2810,1,3,16760.074935258694,528,968,437
2811,1,3,16760.08493506983,539,968,429
2812,1,3,16760.09493488097,547,968,420
2813,1,3,16760.104934692106,555,968,412
2814,1,3,16760.114934503246,556,968,403
2815,1,3,16760.124934314386,554,967,393
2816,1,3,16760.134934125523,549,967,383
2817,1,3,16760.144933936663,544,967,371
2818,1,3,16760.154933747803,539,967,359
2819,1,3,16760.16493355894,534,967,344
2820,1,3,16760.17493337008,529,967,330
2821,1,3,16760.184933181215,524,967,317
2822,1,3,16760.194932992355,523,967,304
2823,1,3,16760.204932803495,519,967,291
2824,1,3,16760.214932614632,519,967,280
2825,1,3,16760.224932425772,513,966,270
2826,1,3,16760.23493223691,526,966,260
2827,1,3,16760.24493204805,515,966,254
2828,1,3,16760.25493185919,519,966,248
2829,1,3,16760.264931670325,510,966,244
2830,1,3,16760.274931481465,504,966,241
2831,1,3,16760.284931292605,497,966,239
2832,1,3,16760.29493110374,503,965,237
2833,1,3,16760.30493091488,506,965,234
2834,1,3,16760.314930726017,527,965,234
2835,1,3,16760.324930537157,498,965,235
2836,1,3,16760.334930348297,483,964,235
2837,1,3,16760.344930159434,507,964,234
2838,1,3,16760.354929970574,518,964,231
2839,1,3,16760.364929781714,517,964,228
2840,1,3,16760.37492959285,519,964,224
2841,1,3,16760.38492940399,520,964,220
2842,1,3,16760.394929215126,516,964,217
2843,1,3,16760.404929026266,512,964,213
2844,1,3,16760.414928837406,478,963,212
2845,1,3,16760.424928648543,428,964,212
2846,1,3,16760.434928459683,443,964,213
2847,1,3,16760.444928270823,702,964,215
2848,1,3,16760.45492808196,756,964,219
2849,1,3,16760.4649278931,646,964,222
2850,1,3,16760.474927704236,523,964,224
2851,1,3,16760.484927515376,461,964,227
2852,1,3,16760.494927326516,447,964,232
2853,1,3,16760.504927137652,449,965,236
2854,1,3,16760.514926948792,451,964,243
2855,1,3,16760.52492675993,459,964,248
2856,1,3,16760.53492657107,461,965,253
2857,1,3,16760.54492638221,465,965,257
2858,1,3,16760.554926193345,471,965,263
2859,1,3,16760.564926004485,473,966,267
2860,1,3,16760.574925815625,475,966,271
2861,1,3,16760.58492562676,477,966,276
2862,1,3,16760.5949254379,477,966,279
2863,1,3,16760.604925249037,476,966,281
2864,1,3,16760.614925060177,477,966,284
2865,1,3,16760.624924871317,477,966,288
2866,1,3,16760.634924682454,477,966,291
2867,1,3,16760.644924493594,477,965,296
2868,1,3,16760.654924304734,480,965,299
2869,1,3,16760.66492411587,484,966,301
2870,1,3,16760.67492392701,493,965,306
2871,1,3,16760.684923738147,508,965,310
2872,1,3,16760.694923549287,526,965,314
2873,1,3,16760.704923360427,527,965,317
2874,1,3,16760.714923171563,525,965,323
2875,1,3,16760.724922982703,542,965,326
2876,1,3,16760.73492279384,589,965,331
2877,1,3,16760.74492260498,560,965,336
2878,1,3,16760.75492241612,580,965,339
2879,1,3,16760.764922227256,489,964,346
2880,1,3,16760.774922038396,507,964,351
2881,1,3,16760.784921849536,519,964,357
2882,1,3,16760.794921660672,529,964,362
2883,1,3,16760.804921471812,530,964,366
2884,1,3,16760.81492128295,522,963,371
2885,1,3,16760.82492109409,525,963,374
2886,1,3,16760.83492090523,519,963,379
2887,1,3,16760.844920716365,519,963,381
2888,1,3,16760.854920527505,515,963,384
2889,1,3,16760.864920338645,516,963,385
2890,1,3,16760.87492014978,508,963,385
2891,1,3,16760.88491996092,500,963,385
2892,1,3,16760.894919772058,503,963,380
2893,1,3,16760.904919583198,506,962,374
2894,1,3,16760.914919394338,503,963,369
2895,1,3,16760.924919205474,502,962,360
2896,1,3,16760.934919016614,507,962,354
2897,1,3,16760.94491882775,509,962,349
2898,1,3,16760.95491863889,538,962,342
2899,1,3,16760.96491845003,528,961,337
2900,1,3,16760.974918261167,523,961,331
2901,1,3,16760.984918072307,544,961,323
2902,1,3,16760.994917883447,524,960,317
2903,1,3,16761.004917694583,512,960,309
2904,1,3,16761.014917505723,511,960,302
2905,1,3,16761.02491731686,481,960,292
2906,1,3,16761.034917128,448,959,287
2907,1,3,16761.04491693914,486,959,279
2908,1,3,16761.054916750276,699,959,273
2909,1,3,16761.064916561416,713,958,267
2910,1,3,16761.074916372556,611,958,259
2911,1,3,16761.084916183692,513,958,253
2912,1,3,16761.094915994832,498,958,250
2913,1,3,16761.10491580597,434,957,246
2914,1,3,16761.11491561711,435,957,242
2915,1,3,16761.12491542825,455,957,239
2916,1,3,16761.134915239385,461,957,239
2917,1,3,16761.144915050525,467,956,239
2918,1,3,16761.15491486166,468,956,239
2919,1,3,16761.1649146728,472,956,241
2920,1,3,16761.17491448394,475,956,243
2921,1,3,16761.184914295078,475,955,242
2922,1,3,16761.194914106218,477,956,243
2923,1,3,16761.204913917358,478,955,242
2924,1,3,16761.214913728494,476,955,237
2925,1,3,16761.224913539634,472,956,234
2926,1,3,16761.23491335077,471,955,231
2927,1,3,16761.24491316191,472,955,226
2928,1,3,16761.25491297305,476,955,216
2929,1,3,16761.264912784187,477,955,212
2930,1,3,16761.274912595327,485,956,207
2931,1,3,16761.284912406467,485,956,197
2932,1,3,16761.294912217603,497,955,187
2933,1,3,16761.304912028743,519,955,179
2934,1,3,16761.31491183988,528,954,175
2935,1,3,16761.32491165102,542,953,172
2936,1,3,16761.33491146216,547,953,165
2937,1,3,16761.344911273296,557,952,160
2938,1,3,16761.354911084436,546,952,159
2939,1,3,16761.364910895572,548,951,159
2940,1,3,16761.374910706712,535,950,159
2941,1,3,16761.384910517852,535,950,154
2942,1,3,16761.39491032899,532,949,156
2943,1,3,16761.40491014013,527,949,158
2944,1,3,16761.41490995127,526,948,155
2945,1,3,16761.424909762405,519,948,155
2946,1,3,16761.434909573545,519,948,156
2947,1,3,16761.44490938468,515,947,155
2948,1,3,16761.45490919582,515,947,153
2949,1,3,16761.46490900696,509,947,155
2950,1,3,16761.474908818098,508,947,156
2951,1,3,16761.484908629238,500,947,158
2952,1,3,16761.494908440378,510,947,154
2953,1,3,16761.504908251514,504,947,156
2954,1,3,16761.514908062654,507,947,157
2955,1,3,16761.52490787379,508,947,152
2956,1,3,16761.53490768493,507,947,153
2957,1,3,16761.54490749607,518,947,153
2958,1,3,16761.554907307207,531,947,150
2959,1,3,16761.564907118347,531,947,153
2960,1,3,16761.574906929483,527,948,148
2961,1,3,16761.584906740623,521,948,148
2962,1,3,16761.594906551763,516,948,151
2963,1,3,16761.6049063629,518,949,150
2964,1,3,16761.61490617404,503,949,148
2965,1,3,16761.62490598518,465,950,152
2966,1,3,16761.634905796316,436,951,153
2967,1,3,16761.644905607456,560,952,152
2968,1,3,16761.654905418593,719,952,152
2969,1,3,16761.664905229733,680,953,153
2970,1,3,16761.674905040873,571,954,156
2971,1,3,16761.68490485201,491,955,157
2972,1,3,16761.69490466315,460,956,156
2973,1,3,16761.70490447429,459,956,153
2974,1,3,16761.714904285425,463,956,155
2975,1,3,16761.724904096565,461,956,153
2976,1,3,16761.7349039077,466,956,151
2977,1,3,16761.74490371884,468,957,153
2978,1,3,16761.75490352998,471,956,154
2979,1,3,16761.764903341118,473,956,156
2980,1,3,16761.774903152258,476,956,155
2981,1,3,16761.784902963398,479,955,153
2982,1,3,16761.794902774534,487,955,153
2983,1,3,16761.804902585674,475,954,157
2984,1,3,16761.81490239681,477,953,158
2985,1,3,16761.82490220795,476,953,160
2986,1,3,16761.83490201909,476,952,160
2987,1,3,16761.844901830227,477,952,158
2988,1,3,16761.854901641367,482,952,154
2989,1,3,16761.864901452504,487,952,155
2990,1,3,16761.874901263644,492,952,155
2991,1,3,16761.884901074784,499,953,152
2992,1,3,16761.89490088592,511,953,148
2993,1,3,16761.90490069706,524,954,150
2994,1,3,16761.9149005082,533,954,150
2995,1,3,16761.924900319336,538,955,149
2996,1,3,16761.934900130476,543,955,146
2997,1,3,16761.944899941613,544,955,147
2998,1,3,16761.954899752753,544,955,149
2999,1,3,16761.964899563893,537,955,145
3000,1,3,16761.97489937503,535,955,148
3001,1,3,16761.98489918617,530,955,146
3002,1,3,16761.99489899731,526,954,149
3003,1,3,16762.004898808445,526,954,151
3004,1,3,16762.014898619585,524,953,146
3005,1,3,16762.02489843072,518,952,148
3006,1,3,16762.03489824186,519,952,150
3007,1,3,16762.044898053,513,952,145
3008,1,3,16762.05489786414,514,951,148
3009,1,3,16762.06489767528,513,952,148
3010,1,3,16762.074897486415,504,952,147
3011,1,3,16762.084897297555,510,951,147
3012,1,3,16762.094897108695,497,952,150
3013,1,3,16762.10489691983,500,952,150
3014,1,3,16762.11489673097,500,952,151
3015,1,3,16762.12489654211,504,951,154
3016,1,3,16762.134896353247,505,951,152
3017,1,3,16762.144896164387,510,951,153
3018,1,3,16762.154895975524,524,951,155
3019,1,3,16762.164895786664,521,950,156
3020,1,3,16762.174895597804,525,950,153
3021,1,3,16762.18489540894,524,950,155
3022,1,3,16762.19489522008,524,950,155
3023,1,3,16762.20489503122,521,949,153
3024,1,3,16762.214894842356,517,949,157
3025,1,3,16762.224894653496,496,949,159
3026,1,3,16762.234894464633,443,948,158
3027,1,3,16762.244894275773,431,948,159
3028,1,3,16762.254894086913,638,948,163
3029,1,3,16762.26489389805,740,948,167
3030,1,3,16762.27489370919,647,948,167
3031,1,3,16762.284893520326,529,948,166
3032,1,3,16762.294893331466,470,948,170
3033,1,3,16762.304893142606,466,948,172
3034,1,3,16762.314892953742,444,949,170
3035,1,3,16762.324892764882,456,949,174
3036,1,3,16762.334892576022,460,949,175
3037,1,3,16762.34489238716,465,949,177
3038,1,3,16762.3548921983,469,950,182
3039,1,3,16762.364892009435,472,949,184
3040,1,3,16762.374891820575,476,949,187
3041,1,3,16762.384891631715,479,949,187
3042,1,3,16762.39489144285,479,949,191
3043,1,3,16762.40489125399,479,949,196
3044,1,3,16762.41489106513,474,949,200
3045,1,3,16762.424890876267,480,949,202
3046,1,3,16762.434890687407,472,949,201
3047,1,3,16762.444890498544,475,948,204
3048,1,3,16762.454890309684,489,948,204
3049,1,3,16762.464890120824,481,948,207
3050,1,3,16762.47488993196,514,948,208
3051,1,3,16762.4848897431,501,947,211
3052,1,3,16762.494889554237,487,947,212
3053,1,3,16762.504889365377,513,947,211
3054,1,3,16762.514889176517,512,947,217
3055,1,3,16762.524888987653,531,947,222
3056,1,3,16762.534888798793,540,947,225
3057,1,3,16762.544888609933,539,947,227
3058,1,3,16762.55488842107,543,947,229
